Alex_Venditti_Left_2.c3d  



Time(s):	B_R_bicipite(μV):
0	9.56726
0.0005	8.05664
0.001	10.67505
0.0015	11.48071
0.002	17.32178
0.0025	6.44531
0.003	4.43115
0.0035	6.74744
0.004	2.31628
0.0045	8.56018
0.005	6.14319
0.0055	6.2439
0.006	10.17151
0.0065	9.66797
0.007	10.57434
0.0075	8.66089
0.008	13.49487
0.0085	14.50195
0.009	6.44531
0.0095	7.85522
0.01	7.35168
0.0105	6.14319
0.011	8.05664
0.0115	11.98425
0.012	10.0708
0.0125	10.57434
0.013	8.05664
0.0135	10.37292
0.014	6.3446
0.0145	6.54602
0.015	0.40283
0.0155	1.81274
0.016	-3.92761
0.0165	1.00708
0.017	4.53186
0.0175	7.65381
0.018	8.25806
0.0185	16.61682
0.019	25.37842
0.0195	20.54443
0.02	14.70337
0.0205	10.97717
0.021	16.41541
0.0215	13.99841
0.022	18.73169
0.0225	12.48779
0.023	17.52319
0.0235	15.91187
0.024	14.30054
0.0245	11.98425
0.025	16.81824
0.0255	17.52319
0.026	13.49487
0.0265	17.82532
0.027	20.34302
0.0275	15.30762
0.028	13.69629
0.0285	12.28638
0.029	11.58142
0.0295	12.18567
0.03	9.97009
0.0305	21.85364
0.031	19.13452
0.0315	14.30054
0.032	14.19983
0.0325	13.09204
0.033	10.57434
0.0335	12.48779
0.034	11.38
0.0345	8.7616
0.035	13.09204
0.0355	11.17859
0.036	11.48071
0.0365	10.77576
0.037	9.86938
0.0375	8.25806
0.038	14.40125
0.0385	12.18567
0.039	9.36584
0.0395	11.88354
0.04	14.40125
0.0405	15.60974
0.041	17.32178
0.0415	10.97717
0.042	7.85522
0.0425	12.99133
0.043	15.71045
0.0435	9.26514
0.044	12.99133
0.0445	11.88354
0.045	9.06372
0.0455	13.99841
0.046	12.48779
0.0465	12.18567
0.047	7.45239
0.0475	5.63965
0.048	6.2439
0.0485	3.52478
0.049	9.26514
0.0495	6.64673
0.05	9.97009
0.0505	13.39417
0.051	12.38708
0.0515	13.39417
0.052	10.97717
0.0525	7.45239
0.053	4.43115
0.0535	10.27222
0.054	13.69629
0.0545	7.35168
0.055	14.50195
0.0555	8.66089
0.056	8.25806
0.0565	11.07788
0.057	8.56018
0.0575	6.54602
0.058	6.84814
0.0585	7.45239
0.059	12.18567
0.0595	10.87646
0.06	11.38
0.0605	11.98425
0.061	9.56726
0.0615	7.15027
0.062	6.84814
0.0625	5.13611
0.063	12.5885
0.0635	5.43823
0.064	9.06372
0.0645	11.2793
0.065	7.95593
0.0655	14.19983
0.066	8.96301
0.0665	11.48071
0.067	9.36584
0.0675	11.2793
0.068	9.16443
0.0685	8.15735
0.069	10.47363
0.0695	12.99133
0.07	10.47363
0.0705	8.7616
0.071	11.07788
0.0715	11.88354
0.072	15.20691
0.0725	15.00549
0.073	11.48071
0.0735	12.68921
0.074	8.45947
0.0745	12.89062
0.075	14.90479
0.0755	14.70337
0.076	16.3147
0.0765	15.81116
0.077	10.27222
0.0775	12.48779
0.078	16.11328
0.0785	12.89062
0.079	14.09912
0.0795	16.51611
0.08	17.72461
0.0805	12.08496
0.081	18.73169
0.0815	16.21399
0.082	11.68213
0.0825	12.48779
0.083	10.57434
0.0835	14.80408
0.084	8.15735
0.0845	8.66089
0.085	11.58142
0.0855	7.85522
0.086	11.98425
0.0865	14.30054
0.087	21.95435
0.0875	25.88196
0.088	18.53027
0.0885	21.3501
0.089	14.09912
0.0895	14.60266
0.09	4.83398
0.0905	7.15027
0.091	0.70496
0.0915	7.75452
0.092	19.23523
0.0925	22.55859
0.093	27.59399
0.0935	25.57983
0.094	21.95435
0.0945	16.21399
0.095	14.60266
0.0955	8.45947
0.096	3.02124
0.0965	8.66089
0.097	2.92053
0.0975	-1.00708
0.098	3.52478
0.0985	1.2085
0.099	2.01416
0.0995	4.83398
0.1	7.25098
0.1005	9.66797
0.101	13.19275
0.1015	12.08496
0.102	6.74744
0.1025	6.84814
0.103	16.51611
0.1035	6.94885
0.104	8.96301
0.1045	15.20691
0.105	10.47363
0.1055	12.5885
0.106	10.47363
0.1065	12.38708
0.107	8.56018
0.1075	6.54602
0.108	11.48071
0.1085	10.97717
0.109	10.0708
0.1095	12.38708
0.11	10.37292
0.1105	10.67505
0.111	15.40833
0.1115	19.73877
0.112	20.34302
0.1125	15.91187
0.113	16.11328
0.1135	13.89771
0.114	14.50195
0.1145	10.87646
0.115	12.99133
0.1155	10.97717
0.116	12.78992
0.1165	12.5885
0.117	14.09912
0.1175	12.48779
0.118	12.38708
0.1185	13.69629
0.119	9.86938
0.1195	12.38708
0.12	9.66797
0.1205	18.42957
0.121	12.5885
0.1215	11.58142
0.122	5.43823
0.1225	7.85522
0.123	12.99133
0.1235	12.38708
0.124	9.16443
0.1245	8.15735
0.125	12.08496
0.1255	12.68921
0.126	13.29346
0.1265	11.98425
0.127	17.22107
0.1275	15.50903
0.128	19.73877
0.1285	16.61682
0.129	19.73877
0.1295	24.57275
0.13	25.27771
0.1305	26.48621
0.131	23.46497
0.1315	8.96301
0.132	8.7616
0.1325	2.01416
0.133	1.10779
0.1335	-6.3446
0.134	-3.92761
0.1345	-5.84106
0.135	-5.74036
0.1355	-7.25098
0.136	-6.3446
0.1365	-8.8623
0.137	-9.97009
0.1375	0.90637
0.138	6.94885
0.1385	11.68213
0.139	9.56726
0.1395	9.16443
0.14	16.3147
0.1405	32.02515
0.141	46.22498
0.1415	49.95117
0.142	43.40515
0.1425	35.34851
0.143	25.37842
0.1435	11.17859
0.144	-3.7262
0.1445	-14.09912
0.145	-13.69629
0.1455	-17.01965
0.146	-13.49487
0.1465	-12.48779
0.147	-4.33044
0.1475	-0.90637
0.148	7.65381
0.1485	8.8623
0.149	18.02673
0.1495	19.43665
0.15	18.12744
0.1505	16.81824
0.151	16.61682
0.1515	22.35718
0.152	12.68921
0.1525	18.63098
0.153	16.61682
0.1535	15.60974
0.154	20.54443
0.1545	19.03381
0.155	10.67505
0.1555	7.25098
0.156	8.66089
0.1565	17.32178
0.157	18.12744
0.1575	26.78833
0.158	28.39966
0.1585	28.29895
0.159	22.86072
0.1595	16.11328
0.16	9.46655
0.1605	5.94177
0.161	5.94177
0.1615	0.80566
0.162	4.93469
0.1625	3.22266
0.163	4.83398
0.1635	30.11169
0.164	40.98816
0.1645	49.85046
0.165	45.41931
0.1655	32.42798
0.166	22.96143
0.1665	12.08496
0.167	3.92761
0.1675	-6.74744
0.168	-15.00549
0.1685	-19.03381
0.169	-12.99133
0.1695	-5.23682
0.17	2.11487
0.1705	8.45947
0.171	4.53186
0.1715	0.90637
0.172	1.51062
0.1725	0
0.173	-3.12195
0.1735	-2.92053
0.174	9.16443
0.1745	21.3501
0.175	33.73718
0.1755	45.01648
0.176	49.85046
0.1765	43.00232
0.177	30.71594
0.1775	12.28638
0.178	-1.81274
0.1785	-12.89062
0.179	-27.59399
0.1795	-32.42798
0.18	-34.64355
0.1805	-36.65771
0.181	-33.43506
0.1815	-27.39258
0.182	-22.25647
0.1825	-8.56018
0.183	-4.83398
0.1835	-4.43115
0.184	-2.71912
0.1845	5.74036
0.185	10.77576
0.1855	10.67505
0.186	16.01257
0.1865	20.64514
0.187	15.40833
0.1875	21.04797
0.188	19.23523
0.1885	21.85364
0.189	11.88354
0.1895	15.00549
0.19	20.1416
0.1905	23.46497
0.191	34.44214
0.1915	32.42798
0.192	32.12585
0.1925	32.12585
0.193	26.58691
0.1935	19.33594
0.194	19.23523
0.1945	17.72461
0.195	16.81824
0.1955	12.48779
0.196	13.19275
0.1965	12.18567
0.197	8.05664
0.1975	7.45239
0.198	11.07788
0.1985	9.16443
0.199	7.04956
0.1995	9.16443
0.2	10.67505
0.2005	5.0354
0.201	11.38
0.2015	8.05664
0.202	9.36584
0.2025	5.23682
0.203	5.94177
0.2035	7.45239
0.204	5.0354
0.2045	5.94177
0.205	0.90637
0.2055	0.90637
0.206	0.40283
0.2065	2.21558
0.207	6.64673
0.2075	8.7616
0.208	3.12195
0.2085	1.2085
0.209	3.8269
0.2095	0.90637
0.21	1.91345
0.2105	3.32336
0.211	1.81274
0.2115	0.80566
0.212	-2.11487
0.2125	-2.92053
0.213	2.01416
0.2135	3.52478
0.214	10.67505
0.2145	23.8678
0.215	37.66479
0.2155	39.77966
0.216	33.63647
0.2165	27.19116
0.217	23.76709
0.2175	14.40125
0.218	1.3092
0.2185	-6.14319
0.219	-10.37292
0.2195	-13.29346
0.22	-16.91895
0.2205	-13.99841
0.221	-8.35876
0.2215	-7.75452
0.222	-4.73328
0.2225	-1.81274
0.223	6.3446
0.2235	9.06372
0.224	9.36584
0.2245	13.09204
0.225	20.24231
0.2255	31.21948
0.226	34.54285
0.2265	42.19666
0.227	44.41223
0.2275	49.74976
0.228	48.33984
0.2285	34.44214
0.229	26.08337
0.2295	12.5885
0.23	7.15027
0.2305	1.3092
0.231	0.10071
0.2315	-2.11487
0.232	-3.22266
0.2325	-9.16443
0.233	-2.01416
0.2335	1.61133
0.234	8.66089
0.2345	6.3446
0.235	12.28638
0.2355	19.43665
0.236	18.8324
0.2365	30.01099
0.237	23.36426
0.2375	22.76001
0.238	17.12036
0.2385	24.27063
0.239	26.78833
0.2395	19.23523
0.24	19.43665
0.2405	14.80408
0.241	15.00549
0.2415	15.81116
0.242	16.11328
0.2425	11.48071
0.243	5.63965
0.2435	7.35168
0.244	9.76868
0.2445	8.05664
0.245	3.32336
0.2455	4.63257
0.246	5.33752
0.2465	2.01416
0.247	6.84814
0.2475	18.73169
0.248	19.94019
0.2485	21.24939
0.249	17.82532
0.2495	19.23523
0.25	34.84497
0.2505	50.05188
0.251	49.54834
0.2515	47.53418
0.252	35.2478
0.2525	27.29187
0.253	11.58142
0.2535	0.30212
0.254	-14.70337
0.2545	-18.12744
0.255	-27.89612
0.2555	-28.9032
0.256	-31.72302
0.2565	-27.6947
0.257	-21.55151
0.2575	-13.99841
0.258	-6.44531
0.2585	-1.71204
0.259	3.92761
0.2595	22.05505
0.26	27.29187
0.2605	26.28479
0.261	20.34302
0.2615	18.8324
0.262	17.01965
0.2625	22.6593
0.263	36.65771
0.2635	32.62939
0.264	26.78833
0.2645	21.85364
0.265	7.75452
0.2655	-4.22974
0.266	-8.15735
0.2665	-10.67505
0.267	-10.47363
0.2675	-14.19983
0.268	-8.35876
0.2685	-8.56018
0.269	-2.71912
0.2695	4.63257
0.27	4.33044
0.2705	8.56018
0.271	6.84814
0.2715	4.83398
0.272	10.27222
0.2725	10.27222
0.273	11.17859
0.2735	14.19983
0.274	13.59558
0.2745	10.87646
0.275	15.30762
0.2755	11.88354
0.276	3.8269
0.2765	5.43823
0.277	7.5531
0.2775	7.85522
0.278	10.27222
0.2785	11.98425
0.279	14.70337
0.2795	10.0708
0.28	10.87646
0.2805	11.68213
0.281	4.33044
0.2815	8.45947
0.282	6.14319
0.2825	-0.30212
0.283	1.81274
0.2835	-5.33752
0.284	0.60425
0.2845	9.36584
0.285	8.7616
0.2855	20.44373
0.286	46.92993
0.2865	54.38232
0.287	48.03772
0.2875	38.974
0.288	18.32886
0.2885	-4.63257
0.289	-22.25647
0.2895	-35.95276
0.29	-43.20374
0.2905	-46.92993
0.291	-44.91577
0.2915	-40.38391
0.292	-34.54285
0.2925	-27.59399
0.293	-9.06372
0.2935	3.8269
0.294	16.41541
0.2945	42.90161
0.295	54.28162
0.2955	58.71277
0.296	48.64197
0.2965	41.79382
0.297	25.47913
0.2975	10.27222
0.298	-0.20142
0.2985	-12.99133
0.299	-21.55151
0.2995	-30.91736
0.3	-26.98975
0.3005	-16.61682
0.301	-19.53735
0.3015	-11.48071
0.302	-5.13611
0.3025	1.61133
0.303	3.12195
0.3035	5.33752
0.304	8.45947
0.3045	8.15735
0.305	10.37292
0.3055	9.76868
0.306	15.30762
0.3065	27.39258
0.307	53.87878
0.3075	73.11401
0.308	62.03613
0.3085	55.49011
0.309	49.44763
0.3095	25.98267
0.31	8.45947
0.3105	-8.8623
0.311	-22.76001
0.3115	-32.02515
0.312	-31.21948
0.3125	-25.57983
0.313	-18.73169
0.3135	-9.46655
0.314	-9.66797
0.3145	5.13611
0.315	1.3092
0.3155	4.93469
0.316	7.75452
0.3165	10.97717
0.317	10.27222
0.3175	10.67505
0.318	14.80408
0.3185	15.20691
0.319	14.80408
0.3195	11.88354
0.32	14.50195
0.3205	15.50903
0.321	15.30762
0.3215	15.40833
0.322	17.52319
0.3225	15.91187
0.323	18.53027
0.3235	27.09045
0.324	27.29187
0.3245	26.98975
0.325	39.07471
0.3255	50.65613
0.326	55.3894
0.3265	58.81348
0.327	47.63489
0.3275	31.72302
0.328	14.50195
0.3285	3.92761
0.329	-0.60425
0.3295	-10.47363
0.33	-22.45789
0.3305	-18.22815
0.331	-13.59558
0.3315	-10.37292
0.332	-3.62549
0.3325	-4.53186
0.333	2.31628
0.3335	4.73328
0.334	6.74744
0.3345	8.25806
0.335	4.33044
0.3355	3.22266
0.336	5.74036
0.3365	12.99133
0.337	12.28638
0.3375	6.64673
0.338	12.5885
0.3385	34.94568
0.339	46.92993
0.3395	42.39807
0.34	37.7655
0.3405	28.80249
0.341	16.41541
0.3415	4.22974
0.342	5.33752
0.3425	3.92761
0.343	3.42407
0.3435	-3.7262
0.344	-10.97717
0.3445	-17.42249
0.345	-28.70178
0.3455	-32.83081
0.346	-27.6947
0.3465	-20.34302
0.347	-19.53735
0.3475	-8.15735
0.348	-3.7262
0.3485	-0.70496
0.349	-2.01416
0.3495	5.0354
0.35	1.00708
0.3505	2.71912
0.351	0.70496
0.3515	9.46655
0.352	29.50745
0.3525	40.38391
0.353	41.18958
0.3535	30.31311
0.354	26.18408
0.3545	14.70337
0.355	4.93469
0.3555	-6.14319
0.356	-12.38708
0.3565	-15.91187
0.357	-27.59399
0.3575	-20.74585
0.358	-23.66638
0.3585	-15.30762
0.359	-7.65381
0.3595	0.60425
0.36	15.40833
0.3605	23.06213
0.361	24.87488
0.3615	17.52319
0.362	15.1062
0.3625	16.81824
0.363	12.68921
0.3635	8.96301
0.364	13.39417
0.3645	11.88354
0.365	20.74585
0.3655	29.30603
0.366	30.71594
0.3665	27.09045
0.367	21.24939
0.3675	21.04797
0.368	14.90479
0.3685	8.66089
0.369	11.2793
0.3695	13.89771
0.37	19.73877
0.3705	24.37134
0.371	26.98975
0.3715	16.81824
0.372	19.63806
0.3725	16.51611
0.373	9.86938
0.3735	-5.13611
0.374	3.12195
0.3745	-3.32336
0.375	-9.06372
0.3755	-7.45239
0.376	3.32336
0.3765	20.44373
0.377	27.99683
0.3775	30.51453
0.378	38.06763
0.3785	46.02356
0.379	47.03064
0.3795	42.59949
0.38	34.34143
0.3805	22.25647
0.381	15.20691
0.3815	-1.00708
0.382	-6.64673
0.3825	-1.10779
0.383	4.12903
0.3835	13.797
0.384	5.84106
0.3845	3.7262
0.385	-2.01416
0.3855	-3.92761
0.386	-14.90479
0.3865	-15.1062
0.387	-17.42249
0.3875	-16.11328
0.388	-9.26514
0.3885	-12.28638
0.389	-11.48071
0.3895	-15.40833
0.39	-17.42249
0.3905	-17.82532
0.391	-13.09204
0.3915	-4.73328
0.392	-0.60425
0.3925	1.51062
0.393	-6.74744
0.3935	0.70496
0.394	8.15735
0.3945	12.18567
0.395	9.46655
0.3955	2.92053
0.396	2.41699
0.3965	3.62549
0.397	4.53186
0.3975	5.53894
0.398	6.2439
0.3985	7.35168
0.399	11.38
0.3995	14.19983
0.4	17.52319
0.4005	17.82532
0.401	28.29895
0.4015	29.50745
0.402	32.83081
0.4025	23.46497
0.403	40.2832
0.4035	47.33276
0.404	49.74976
0.4045	43.10303
0.405	34.54285
0.4055	24.77417
0.406	10.27222
0.4065	-5.23682
0.407	-24.77417
0.4075	-35.14709
0.408	-30.91736
0.4085	-20.94727
0.409	-14.40125
0.4095	-6.2439
0.41	-3.22266
0.4105	1.81274
0.411	3.02124
0.4115	1.81274
0.412	3.52478
0.4125	1.00708
0.413	12.99133
0.4135	15.60974
0.414	8.35876
0.4145	11.48071
0.415	7.75452
0.4155	3.92761
0.416	-5.53894
0.4165	-9.56726
0.417	-13.59558
0.4175	-12.78992
0.418	-17.82532
0.4185	-24.87488
0.419	-18.12744
0.4195	-3.02124
0.42	20.1416
0.4205	35.65063
0.421	41.18958
0.4215	22.96143
0.422	10.77576
0.4225	-3.12195
0.423	-11.2793
0.4235	-16.21399
0.424	-16.71753
0.4245	-10.47363
0.425	1.00708
0.4255	4.93469
0.426	14.60266
0.4265	10.57434
0.427	12.38708
0.4275	16.61682
0.428	23.96851
0.4285	28.80249
0.429	31.11877
0.4295	25.88196
0.43	25.37842
0.4305	25.177
0.431	23.16284
0.4315	20.04089
0.432	24.16992
0.4325	24.57275
0.433	25.177
0.4335	24.47205
0.434	22.15576
0.4345	21.55151
0.435	15.81116
0.4355	16.91895
0.436	19.33594
0.4365	16.3147
0.437	16.01257
0.4375	9.97009
0.438	10.27222
0.4385	11.48071
0.439	7.35168
0.4395	7.35168
0.44	9.97009
0.4405	16.71753
0.441	18.8324
0.4415	13.89771
0.442	8.8623
0.4425	11.38
0.443	11.58142
0.4435	10.17151
0.444	12.18567
0.4445	5.0354
0.445	5.0354
0.4455	0.70496
0.446	8.66089
0.4465	2.5177
0.447	4.43115
0.4475	6.3446
0.448	4.22974
0.4485	5.74036
0.449	7.15027
0.4495	10.17151
0.45	2.21558
0.4505	2.11487
0.451	-2.61841
0.4515	0.80566
0.452	4.02832
0.4525	8.25806
0.453	3.12195
0.4535	4.12903
0.454	15.50903
0.4545	14.50195
0.455	19.94019
0.4555	22.35718
0.456	31.52161
0.4565	33.33435
0.457	28.70178
0.4575	25.27771
0.458	26.78833
0.4585	24.47205
0.459	8.56018
0.4595	1.3092
0.46	-11.38
0.4605	-21.95435
0.461	-28.29895
0.4615	-32.32727
0.462	-30.2124
0.4625	-29.91028
0.463	-28.80249
0.4635	-17.32178
0.464	-10.57434
0.4645	-12.18567
0.465	-9.06372
0.4655	0.30212
0.466	0.70496
0.4665	-3.92761
0.467	7.04956
0.4675	0.40283
0.468	7.45239
0.4685	10.57434
0.469	5.74036
0.4695	11.58142
0.47	3.8269
0.4705	6.04248
0.471	3.8269
0.4715	6.84814
0.472	0.80566
0.4725	-4.93469
0.473	-9.86938
0.4735	-16.3147
0.474	-16.51611
0.4745	-17.32178
0.475	-15.00549
0.4755	-4.53186
0.476	5.84106
0.4765	9.76868
0.477	7.75452
0.4775	20.1416
0.478	18.02673
0.4785	20.74585
0.479	21.65222
0.4795	23.26355
0.48	18.53027
0.4805	23.56567
0.481	21.45081
0.4815	21.14868
0.482	12.48779
0.4825	15.50903
0.483	16.11328
0.4835	11.38
0.484	17.82532
0.4845	12.38708
0.485	12.48779
0.4855	13.29346
0.486	9.46655
0.4865	7.85522
0.487	2.31628
0.4875	1.2085
0.488	8.25806
0.4885	6.2439
0.489	2.21558
0.4895	3.8269
0.49	3.42407
0.4905	10.77576
0.491	9.76868
0.4915	0.40283
0.492	-8.45947
0.4925	-7.95593
0.493	-18.53027
0.4935	-19.43665
0.494	-17.52319
0.4945	-13.29346
0.495	-14.50195
0.4955	-8.05664
0.496	3.52478
0.4965	9.97009
0.497	15.71045
0.4975	15.40833
0.498	19.53735
0.4985	29.80957
0.499	26.48621
0.4995	24.06921
0.5	14.80408
0.5005	19.03381
0.501	17.72461
0.5015	13.49487
0.502	14.30054
0.5025	11.58142
0.503	8.66089
0.5035	10.27222
0.504	10.67505
0.5045	12.18567
0.505	14.70337
0.5055	17.72461
0.506	18.93311
0.5065	16.41541
0.507	22.86072
0.5075	15.91187
0.508	10.47363
0.5085	7.25098
0.509	3.12195
0.5095	11.58142
0.51	10.87646
0.5105	12.99133
0.511	16.21399
0.5115	14.70337
0.512	5.53894
0.5125	-3.22266
0.513	-8.05664
0.5135	-8.8623
0.514	-14.70337
0.5145	-10.27222
0.515	1.40991
0.5155	0.40283
0.516	8.7616
0.5165	5.33752
0.517	5.74036
0.5175	9.56726
0.518	6.74744
0.5185	5.33752
0.519	21.65222
0.5195	28.80249
0.52	29.00391
0.5205	27.99683
0.521	19.94019
0.5215	10.67505
0.522	5.23682
0.5225	-7.35168
0.523	-19.13452
0.5235	-23.26355
0.524	-25.68054
0.5245	-24.47205
0.525	-21.65222
0.5255	-16.21399
0.526	-13.59558
0.5265	-9.97009
0.527	-8.35876
0.5275	-5.33752
0.528	-7.85522
0.5285	-6.54602
0.529	-2.5177
0.5295	-6.14319
0.53	-12.28638
0.5305	-11.98425
0.531	-11.68213
0.5315	-9.46655
0.532	-5.94177
0.5325	-3.92761
0.533	-1.61133
0.5335	-5.43823
0.534	-12.48779
0.5345	-18.22815
0.535	-23.16284
0.5355	-21.55151
0.536	-25.07629
0.5365	-24.87488
0.537	-15.20691
0.5375	-7.15027
0.538	0.90637
0.5385	11.17859
0.539	20.1416
0.5395	26.48621
0.54	30.61523
0.5405	29.10461
0.541	33.23364
0.5415	38.67188
0.542	42.09595
0.5425	49.0448
0.543	47.33276
0.5435	45.82214
0.544	38.57117
0.5445	34.54285
0.545	30.71594
0.5455	23.96851
0.546	16.61682
0.5465	11.88354
0.547	16.81824
0.5475	9.06372
0.548	14.90479
0.5485	13.59558
0.549	9.86938
0.5495	0.20142
0.55	-7.65381
0.5505	-9.46655
0.551	-6.04248
0.5515	-0.20142
0.552	0.30212
0.5525	9.36584
0.553	11.48071
0.5535	6.74744
0.554	8.45947
0.5545	6.04248
0.555	0.60425
0.5555	-2.01416
0.556	-5.23682
0.5565	-0.50354
0.557	-3.92761
0.5575	5.0354
0.558	6.54602
0.5585	12.99133
0.559	21.3501
0.5595	15.81116
0.56	2.11487
0.5605	3.7262
0.561	2.21558
0.5615	-0.90637
0.562	1.71204
0.5625	-2.21558
0.563	0.20142
0.5635	-2.01416
0.564	1.81274
0.5645	2.61841
0.565	4.43115
0.5655	13.09204
0.566	8.05664
0.5665	1.61133
0.567	-1.61133
0.5675	-7.35168
0.568	-9.76868
0.5685	-5.63965
0.569	-9.66797
0.5695	-6.84814
0.57	-11.38
0.5705	-6.2439
0.571	-9.97009
0.5715	-8.25806
0.572	1.61133
0.5725	10.67505
0.573	13.59558
0.5735	14.30054
0.574	15.40833
0.5745	17.82532
0.575	6.04248
0.5755	13.29346
0.576	16.41541
0.5765	11.48071
0.577	3.7262
0.5775	5.0354
0.578	-1.2085
0.5785	-8.7616
0.579	-3.12195
0.5795	-5.23682
0.58	4.22974
0.5805	7.15027
0.581	15.00549
0.5815	24.57275
0.582	20.74585
0.5825	23.16284
0.583	25.98267
0.5835	27.39258
0.584	27.09045
0.5845	17.52319
0.585	10.87646
0.5855	-2.31628
0.586	-7.5531
0.5865	-2.5177
0.587	-11.48071
0.5875	-6.94885
0.588	-8.25806
0.5885	-6.54602
0.589	1.81274
0.5895	6.74744
0.59	11.98425
0.5905	11.58142
0.591	4.02832
0.5915	0.90637
0.592	-4.22974
0.5925	-15.91187
0.593	-17.82532
0.5935	-17.22107
0.594	-20.04089
0.5945	-10.97717
0.595	-2.92053
0.5955	6.64673
0.596	7.45239
0.5965	10.57434
0.597	6.64673
0.5975	-5.13611
0.598	-8.15735
0.5985	-8.8623
0.599	-5.13611
0.5995	-1.51062
0.6	10.0708
0.6005	18.12744
0.601	22.05505
0.6015	29.20532
0.602	34.34143
0.6025	37.16125
0.603	29.00391
0.6035	32.83081
0.604	31.32019
0.6045	24.87488
0.605	21.95435
0.6055	21.55151
0.606	10.87646
0.6065	7.35168
0.607	5.33752
0.6075	6.2439
0.608	6.2439
0.6085	8.45947
0.609	7.75452
0.6095	11.98425
0.61	5.84106
0.6105	10.37292
0.611	9.56726
0.6115	5.94177
0.612	10.77576
0.6125	-6.64673
0.613	-7.04956
0.6135	-8.05664
0.614	-4.53186
0.6145	8.66089
0.615	13.09204
0.6155	20.04089
0.616	16.61682
0.6165	8.35876
0.617	9.46655
0.6175	5.0354
0.618	-4.22974
0.6185	-13.89771
0.619	-20.44373
0.6195	-28.80249
0.62	-18.02673
0.6205	-16.3147
0.621	-17.82532
0.6215	-11.2793
0.622	-6.44531
0.6225	-2.41699
0.623	-4.12903
0.6235	-5.94177
0.624	-5.53894
0.6245	-3.8269
0.625	-7.75452
0.6255	-9.16443
0.626	-8.66089
0.6265	-5.23682
0.627	-0.30212
0.6275	10.57434
0.628	16.01257
0.6285	12.5885
0.629	12.89062
0.6295	-1.3092
0.63	0.50354
0.6305	-4.63257
0.631	-5.74036
0.6315	2.41699
0.632	5.0354
0.6325	9.36584
0.633	5.94177
0.6335	8.96301
0.634	10.97717
0.6345	9.46655
0.635	7.25098
0.6355	16.3147
0.636	14.70337
0.6365	17.32178
0.637	14.70337
0.6375	11.78284
0.638	12.5885
0.6385	8.66089
0.639	17.12036
0.6395	20.94727
0.64	14.80408
0.6405	15.50903
0.641	15.40833
0.6415	19.53735
0.642	17.32178
0.6425	15.81116
0.643	13.797
0.6435	11.2793
0.644	5.0354
0.6445	7.75452
0.645	1.91345
0.6455	8.7616
0.646	6.74744
0.6465	7.5531
0.647	4.63257
0.6475	8.25806
0.648	2.92053
0.6485	7.95593
0.649	6.84814
0.6495	6.3446
0.65	1.2085
0.6505	0.90637
0.651	0.70496
0.6515	-1.40991
0.652	2.81982
0.6525	5.13611
0.653	9.26514
0.6535	8.66089
0.654	7.35168
0.6545	12.78992
0.655	15.71045
0.6555	16.01257
0.656	17.72461
0.6565	16.61682
0.657	18.12744
0.6575	13.09204
0.658	21.14868
0.6585	14.90479
0.659	7.85522
0.6595	-3.32336
0.66	-1.81274
0.6605	-3.7262
0.661	-9.36584
0.6615	-13.99841
0.662	-13.59558
0.6625	-3.8269
0.663	0.60425
0.6635	-0.10071
0.664	-2.92053
0.6645	-6.14319
0.665	-1.10779
0.6655	8.15735
0.666	6.3446
0.6665	5.84106
0.667	-3.22266
0.6675	0.90637
0.668	6.94885
0.6685	6.94885
0.669	-0.90637
0.6695	1.3092
0.67	0.60425
0.6705	2.81982
0.671	8.25806
0.6715	9.36584
0.672	8.35876
0.6725	13.69629
0.673	7.65381
0.6735	12.48779
0.674	14.80408
0.6745	19.63806
0.675	17.72461
0.6755	23.26355
0.676	21.45081
0.6765	19.83948
0.677	17.01965
0.6775	12.28638
0.678	8.35876
0.6785	6.14319
0.679	4.63257
0.6795	-1.51062
0.68	-17.72461
0.6805	-28.70178
0.681	-25.07629
0.6815	-16.3147
0.682	-11.68213
0.6825	-7.85522
0.683	-3.12195
0.6835	2.71912
0.684	5.33752
0.6845	13.59558
0.685	5.33752
0.6855	8.8623
0.686	8.8623
0.6865	1.2085
0.687	2.5177
0.6875	5.23682
0.688	4.73328
0.6885	0.20142
0.689	6.94885
0.6895	6.3446
0.69	4.22974
0.6905	-0.10071
0.691	-3.7262
0.6915	-11.07788
0.692	-17.42249
0.6925	-11.48071
0.693	-6.14319
0.6935	-1.61133
0.694	0.50354
0.6945	9.06372
0.695	11.98425
0.6955	11.98425
0.696	12.28638
0.6965	10.37292
0.697	11.78284
0.6975	7.25098
0.698	7.75452
0.6985	12.08496
0.699	7.5531
0.6995	-5.74036
0.7	-19.53735
0.7005	-20.34302
0.701	-23.76709
0.7015	-19.94019
0.702	-19.73877
0.7025	-11.68213
0.703	-4.02832
0.7035	6.84814
0.704	15.91187
0.7045	20.74585
0.705	13.797
0.7055	2.92053
0.706	-3.8269
0.7065	0.20142
0.707	-1.2085
0.7075	3.22266
0.708	11.2793
0.7085	20.44373
0.709	31.4209
0.7095	33.9386
0.71	37.46338
0.7105	41.69312
0.711	40.08179
0.7115	39.17542
0.712	36.15417
0.7125	32.32727
0.713	26.3855
0.7135	23.76709
0.714	21.65222
0.7145	15.81116
0.715	13.09204
0.7155	9.86938
0.716	12.48779
0.7165	17.82532
0.717	20.64514
0.7175	24.77417
0.718	18.93311
0.7185	20.64514
0.719	16.01257
0.7195	5.0354
0.72	-0.90637
0.7205	-7.75452
0.721	-3.92761
0.7215	0.80566
0.722	2.61841
0.7225	0.60425
0.723	2.01416
0.7235	-0.30212
0.724	-2.5177
0.7245	-5.33752
0.725	-0.10071
0.7255	1.2085
0.726	1.40991
0.7265	0
0.727	-4.12903
0.7275	-6.04248
0.728	-1.91345
0.7285	-1.81274
0.729	-3.22266
0.7295	-2.61841
0.73	-1.00708
0.7305	-4.53186
0.731	3.8269
0.7315	1.51062
0.732	-3.22266
0.7325	-1.00708
0.733	-2.71912
0.7335	-7.75452
0.734	-4.22974
0.7345	2.21558
0.735	3.62549
0.7355	6.14319
0.736	5.84106
0.7365	-1.61133
0.737	-5.43823
0.7375	-3.92761
0.738	-4.22974
0.7385	-1.91345
0.739	2.01416
0.7395	5.33752
0.74	8.25806
0.7405	8.45947
0.741	7.25098
0.7415	1.91345
0.742	7.95593
0.7425	5.0354
0.743	3.52478
0.7435	8.66089
0.744	1.00708
0.7445	5.74036
0.745	8.66089
0.7455	16.3147
0.746	9.06372
0.7465	10.77576
0.747	7.5531
0.7475	-2.31628
0.748	-3.7262
0.7485	1.40991
0.749	1.00708
0.7495	5.43823
0.75	-3.22266
0.7505	1.10779
0.751	0.40283
0.7515	0
0.752	-0.80566
0.7525	-5.33752
0.753	-0.70496
0.7535	-9.66797
0.754	-5.53894
0.7545	-0.60425
0.755	-6.04248
0.7555	-9.06372
0.756	-13.59558
0.7565	-13.69629
0.757	-14.70337
0.7575	-12.68921
0.758	-1.10779
0.7585	-2.41699
0.759	5.43823
0.7595	1.71204
0.76	-24.06921
0.7605	-26.78833
0.761	-42.7002
0.7615	-40.48462
0.762	-31.01807
0.7625	-14.40125
0.763	3.12195
0.7635	15.71045
0.764	32.62939
0.7645	49.24622
0.765	46.62781
0.7655	43.80798
0.766	38.77258
0.7665	25.98267
0.767	20.54443
0.7675	20.64514
0.768	24.87488
0.7685	24.77417
0.769	34.54285
0.7695	40.58533
0.77	34.74426
0.7705	34.03931
0.771	35.75134
0.7715	41.89453
0.772	32.32727
0.7725	25.27771
0.773	23.76709
0.7735	19.94019
0.774	19.83948
0.7745	8.05664
0.775	1.91345
0.7755	-1.2085
0.776	2.41699
0.7765	2.81982
0.777	1.3092
0.7775	0.20142
0.778	-4.33044
0.7785	-4.12903
0.779	-11.88354
0.7795	-11.68213
0.78	-16.11328
0.7805	-5.74036
0.781	-6.84814
0.7815	-5.53894
0.782	-2.41699
0.7825	-2.11487
0.783	-3.12195
0.7835	6.54602
0.784	13.797
0.7845	16.81824
0.785	23.16284
0.7855	21.75293
0.786	18.12744
0.7865	15.91187
0.787	19.03381
0.7875	17.72461
0.788	10.27222
0.7885	6.54602
0.789	7.75452
0.7895	-7.15027
0.79	-11.38
0.7905	-11.68213
0.791	-9.26514
0.7915	-8.8623
0.792	-7.15027
0.7925	-6.54602
0.793	-9.66797
0.7935	-2.71912
0.794	0.60425
0.7945	9.56726
0.795	10.37292
0.7955	9.46655
0.796	12.78992
0.7965	13.797
0.797	14.19983
0.7975	15.71045
0.798	13.19275
0.7985	13.09204
0.799	7.45239
0.7995	6.74744
0.8	13.09204
0.8005	9.76868
0.801	15.00549
0.8015	17.42249
0.802	11.88354
0.8025	12.28638
0.803	4.93469
0.8035	7.45239
0.804	-5.13611
0.8045	-5.53894
0.805	-14.90479
0.8055	-17.52319
0.806	-11.38
0.8065	-11.17859
0.807	-4.43115
0.8075	-6.2439
0.808	-6.54602
0.8085	-17.92603
0.809	-21.75293
0.8095	-33.63647
0.81	-33.03223
0.8105	-25.37842
0.811	-13.39417
0.8115	-2.81982
0.812	1.81274
0.8125	12.78992
0.813	14.50195
0.8135	19.63806
0.814	21.04797
0.8145	25.47913
0.815	25.78125
0.8155	29.80957
0.816	30.71594
0.8165	26.78833
0.817	31.52161
0.8175	21.85364
0.818	17.42249
0.8185	14.80408
0.819	16.61682
0.8195	15.30762
0.82	19.23523
0.8205	32.52869
0.821	27.09045
0.8215	19.33594
0.822	10.87646
0.8225	5.33752
0.823	4.12903
0.8235	-0.40283
0.824	2.41699
0.8245	8.56018
0.825	7.45239
0.8255	13.39417
0.826	16.81824
0.8265	16.41541
0.827	19.73877
0.8275	13.797
0.828	11.17859
0.8285	3.92761
0.829	10.57434
0.8295	3.42407
0.83	-4.22974
0.8305	-9.76868
0.831	-8.7616
0.8315	-12.68921
0.832	-12.08496
0.8325	-12.68921
0.833	-15.71045
0.8335	-12.08496
0.834	-14.50195
0.8345	-16.51611
0.835	-15.81116
0.8355	-11.88354
0.836	-9.46655
0.8365	-5.23682
0.837	0.40283
0.8375	6.54602
0.838	9.46655
0.8385	0.50354
0.839	-1.71204
0.8395	-3.8269
0.84	1.3092
0.8405	-1.71204
0.841	-11.07788
0.8415	-27.49329
0.842	-31.92444
0.8425	-30.2124
0.843	-25.37842
0.8435	-11.88354
0.844	-3.02124
0.8445	2.92053
0.845	12.18567
0.8455	11.68213
0.846	17.32178
0.8465	19.83948
0.847	17.92603
0.8475	17.82532
0.848	10.27222
0.8485	11.68213
0.849	8.8623
0.8495	5.74036
0.85	14.50195
0.8505	15.50903
0.851	16.41541
0.8515	13.59558
0.852	24.67346
0.8525	26.48621
0.853	25.57983
0.8535	22.15576
0.854	29.10461
0.8545	20.04089
0.855	20.24231
0.8555	9.76868
0.856	12.38708
0.8565	11.98425
0.857	7.45239
0.8575	14.40125
0.858	8.45947
0.8585	0.20142
0.859	4.02832
0.8595	-1.71204
0.86	-6.3446
0.8605	-11.17859
0.861	-8.8623
0.8615	-9.16443
0.862	-4.83398
0.8625	1.61133
0.863	2.11487
0.8635	3.8269
0.864	10.57434
0.8645	6.84814
0.865	13.39417
0.8655	14.70337
0.866	11.98425
0.8665	13.69629
0.867	15.91187
0.8675	17.42249
0.868	17.82532
0.8685	20.1416
0.869	14.80408
0.8695	6.84814
0.87	6.2439
0.8705	6.94885
0.871	10.67505
0.8715	15.1062
0.872	11.38
0.8725	5.13611
0.873	5.84106
0.8735	-2.71912
0.874	-9.16443
0.8745	-4.22974
0.875	-9.56726
0.8755	-4.43115
0.876	-5.33752
0.8765	-5.53894
0.877	-1.71204
0.8775	3.32336
0.878	4.83398
0.8785	8.05664
0.879	3.32336
0.8795	2.41699
0.88	3.22266
0.8805	6.84814
0.881	-0.90637
0.8815	-10.57434
0.882	-1.2085
0.8825	-7.95593
0.883	-1.51062
0.8835	-6.84814
0.884	-6.94885
0.8845	0.90637
0.885	-4.22974
0.8855	0.90637
0.886	2.61841
0.8865	7.15027
0.887	4.12903
0.8875	7.25098
0.888	-0.80566
0.8885	-7.25098
0.889	-2.5177
0.8895	1.40991
0.89	4.12903
0.8905	13.49487
0.891	5.63965
0.8915	7.45239
0.892	9.97009
0.8925	13.59558
0.893	12.08496
0.8935	10.37292
0.894	5.94177
0.8945	9.66797
0.895	15.71045
0.8955	16.51611
0.896	10.47363
0.8965	8.35876
0.897	10.47363
0.8975	7.85522
0.898	17.22107
0.8985	11.58142
0.899	14.50195
0.8995	11.07788
0.9	10.67505
0.9005	11.58142
0.901	6.44531
0.9015	6.64673
0.902	6.84814
0.9025	3.32336
0.903	7.04956
0.9035	3.42407
0.904	4.63257
0.9045	3.12195
0.905	-0.10071
0.9055	-1.51062
0.906	1.00708
0.9065	-2.21558
0.907	0.50354
0.9075	2.31628
0.908	1.10779
0.9085	-13.89771
0.909	-12.38708
0.9095	-16.91895
0.91	-13.49487
0.9105	-15.50903
0.911	-8.15735
0.9115	-5.43823
0.912	-6.64673
0.9125	-6.44531
0.913	-12.28638
0.9135	-13.797
0.914	-6.44531
0.9145	1.71204
0.915	3.92761
0.9155	9.26514
0.916	12.08496
0.9165	9.66797
0.917	11.88354
0.9175	12.08496
0.918	8.15735
0.9185	7.25098
0.919	8.15735
0.9195	11.17859
0.92	8.45947
0.9205	7.45239
0.921	13.19275
0.9215	9.97009
0.922	7.25098
0.9225	8.05664
0.923	4.33044
0.9235	3.52478
0.924	-6.74744
0.9245	-14.90479
0.925	-16.51611
0.9255	-20.74585
0.926	-17.52319
0.9265	-15.30762
0.927	-15.71045
0.9275	-5.63965
0.928	1.91345
0.9285	15.20691
0.929	21.85364
0.9295	26.48621
0.93	23.56567
0.9305	21.3501
0.931	22.76001
0.9315	23.8678
0.932	20.1416
0.9325	17.72461
0.933	15.50903
0.9335	9.26514
0.934	9.56726
0.9345	8.8623
0.935	8.56018
0.9355	8.7616
0.936	12.08496
0.9365	11.68213
0.937	13.19275
0.9375	10.17151
0.938	9.46655
0.9385	7.75452
0.939	13.49487
0.9395	9.46655
0.94	9.86938
0.9405	7.35168
0.941	4.33044
0.9415	6.2439
0.942	-0.90637
0.9425	-8.8623
0.943	-5.74036
0.9435	-1.91345
0.944	-1.61133
0.9445	-2.31628
0.945	-1.10779
0.9455	-3.52478
0.946	1.3092
0.9465	-1.61133
0.947	-9.66797
0.9475	-8.56018
0.948	-9.46655
0.9485	-6.74744
0.949	0.60425
0.9495	5.63965
0.95	3.32336
0.9505	9.86938
0.951	11.58142
0.9515	13.29346
0.952	10.17151
0.9525	0.70496
0.953	-4.93469
0.9535	-11.58142
0.954	-11.48071
0.9545	-6.94885
0.955	-2.11487
0.9555	0.60425
0.956	0.70496
0.9565	5.33752
0.957	6.3446
0.9575	5.23682
0.958	12.48779
0.9585	9.56726
0.959	1.61133
0.9595	-2.01416
0.96	-4.02832
0.9605	-7.45239
0.961	-2.5177
0.9615	-4.22974
0.962	-1.61133
0.9625	4.73328
0.963	5.33752
0.9635	6.94885
0.964	7.45239
0.9645	13.39417
0.965	9.66797
0.9655	8.25806
0.966	4.22974
0.9665	4.02832
0.967	-7.65381
0.9675	-4.43115
0.968	3.02124
0.9685	8.05664
0.969	9.26514
0.9695	9.16443
0.97	15.1062
0.9705	17.52319
0.971	12.68921
0.9715	19.63806
0.972	14.80408
0.9725	17.92603
0.973	17.72461
0.9735	14.80408
0.974	12.08496
0.9745	8.35876
0.975	12.38708
0.9755	12.48779
0.976	14.70337
0.9765	9.86938
0.977	5.0354
0.9775	6.04248
0.978	9.86938
0.9785	2.61841
0.979	9.46655
0.9795	6.04248
0.98	8.35876
0.9805	1.10779
0.981	-2.11487
0.9815	-12.99133
0.982	-26.18408
0.9825	-31.21948
0.983	-24.27063
0.9835	-20.1416
0.984	-7.04956
0.9845	2.92053
0.985	6.04248
0.9855	13.19275
0.986	13.797
0.9865	19.73877
0.987	14.09912
0.9875	21.3501
0.988	15.71045
0.9885	13.797
0.989	15.81116
0.9895	15.60974
0.99	17.72461
0.9905	6.44531
0.991	-4.73328
0.9915	-3.12195
0.992	-3.22266
0.9925	-5.53894
0.993	-7.85522
0.9935	-13.29346
0.994	-17.32178
0.9945	-21.04797
0.995	-28.80249
0.9955	-37.36267
0.996	-28.80249
0.9965	-22.76001
0.997	-12.99133
0.9975	-12.48779
0.998	-1.51062
0.9985	4.22974
0.999	14.09912
0.9995	19.13452
1	28.09753
1.0005	29.00391
1.001	28.29895
1.0015	29.00391
1.002	26.18408
1.0025	19.83948
1.003	20.1416
1.0035	14.30054
1.004	20.44373
1.0045	19.94019
1.005	16.21399
1.0055	10.77576
1.006	4.43115
1.0065	4.33044
1.007	6.3446
1.0075	10.37292
1.008	9.66797
1.0085	7.45239
1.009	14.90479
1.0095	8.05664
1.01	15.00549
1.0105	13.99841
1.011	14.90479
1.0115	18.02673
1.012	22.45789
1.0125	16.61682
1.013	6.04248
1.0135	5.23682
1.014	5.84106
1.0145	4.73328
1.015	12.08496
1.0155	11.48071
1.016	18.22815
1.0165	2.61841
1.017	-5.63965
1.0175	-15.60974
1.018	-10.67505
1.0185	-13.69629
1.019	-9.56726
1.0195	-5.43823
1.02	-4.12903
1.0205	-4.22974
1.021	1.40991
1.0215	4.73328
1.022	10.27222
1.0225	16.01257
1.023	14.90479
1.0235	13.19275
1.024	3.7262
1.0245	-1.00708
1.025	-15.00549
1.0255	-27.09045
1.026	-33.33435
1.0265	-31.52161
1.027	-26.48621
1.0275	-17.32178
1.028	-14.30054
1.0285	-12.48779
1.029	-10.0708
1.0295	3.42407
1.03	4.83398
1.0305	12.99133
1.031	22.05505
1.0315	15.20691
1.032	9.97009
1.0325	4.63257
1.033	7.15027
1.0335	10.0708
1.034	14.50195
1.0345	9.97009
1.035	16.41541
1.0355	12.48779
1.036	9.26514
1.0365	10.47363
1.037	16.81824
1.0375	7.04956
1.038	5.53894
1.0385	1.00708
1.039	-4.33044
1.0395	-1.71204
1.04	-4.12903
1.0405	-3.92761
1.041	-8.56018
1.0415	-9.46655
1.042	-6.94885
1.0425	-6.3446
1.043	-7.04956
1.0435	-1.10779
1.044	4.53186
1.0445	9.26514
1.045	12.18567
1.0455	12.08496
1.046	17.22107
1.0465	20.04089
1.047	26.18408
1.0475	26.98975
1.048	24.77417
1.0485	16.51611
1.049	5.53894
1.0495	2.21558
1.05	0.70496
1.0505	-6.3446
1.051	-5.33752
1.0515	-4.12903
1.052	-2.41699
1.0525	1.2085
1.053	9.16443
1.0535	15.81116
1.054	7.04956
1.0545	-1.51062
1.055	-19.63806
1.0555	-30.71594
1.056	-25.78125
1.0565	-21.75293
1.057	-17.22107
1.0575	-8.45947
1.058	-7.04956
1.0585	-1.3092
1.059	-0.40283
1.0595	11.2793
1.06	9.56726
1.0605	15.50903
1.061	17.42249
1.0615	26.58691
1.062	27.19116
1.0625	19.23523
1.063	9.26514
1.0635	7.5531
1.064	14.19983
1.0645	22.15576
1.065	23.66638
1.0655	25.07629
1.066	24.47205
1.0665	26.98975
1.067	32.12585
1.0675	37.56409
1.068	39.88037
1.0685	31.62231
1.069	29.50745
1.0695	28.09753
1.07	23.96851
1.0705	15.00549
1.071	12.48779
1.0715	4.33044
1.072	5.74036
1.0725	4.43115
1.073	-8.25806
1.0735	-4.93469
1.074	-5.33752
1.0745	-7.65381
1.075	-8.7616
1.0755	-1.61133
1.076	-2.92053
1.0765	-1.3092
1.077	-2.31628
1.0775	-3.62549
1.078	1.10779
1.0785	-0.40283
1.079	-6.3446
1.0795	-5.53894
1.08	-3.8269
1.0805	-4.63257
1.081	-0.40283
1.0815	-4.02832
1.082	0.30212
1.0825	6.04248
1.083	-0.10071
1.0835	-7.15027
1.084	4.73328
1.0845	2.31628
1.085	4.83398
1.0855	3.62549
1.086	5.53894
1.0865	7.25098
1.087	5.23682
1.0875	3.32336
1.088	3.02124
1.0885	5.63965
1.089	11.07788
1.0895	9.97009
1.09	17.42249
1.0905	9.26514
1.091	8.96301
1.0915	6.04248
1.092	12.5885
1.0925	12.5885
1.093	15.1062
1.0935	8.35876
1.094	1.91345
1.0945	-0.20142
1.095	3.02124
1.0955	10.67505
1.096	10.17151
1.0965	12.28638
1.097	8.45947
1.0975	-1.00708
1.098	-21.24939
1.0985	-25.98267
1.099	-39.17542
1.0995	-52.16675
1.1	-48.54126
1.1005	-42.59949
1.101	-24.47205
1.1015	-3.32336
1.102	13.39417
1.1025	35.85205
1.103	44.41223
1.1035	63.84888
1.104	62.64038
1.1045	66.26587
1.105	59.1156
1.1055	63.54675
1.106	55.59082
1.1065	52.67029
1.107	46.82922
1.1075	38.67188
1.108	27.09045
1.1085	13.19275
1.109	7.65381
1.1095	1.71204
1.11	-1.51062
1.1105	-3.7262
1.111	-13.89771
1.1115	-22.76001
1.112	-27.89612
1.1125	-23.46497
1.113	-33.83789
1.1135	-24.27063
1.114	-13.89771
1.1145	-3.02124
1.115	-0.40283
1.1155	-2.71912
1.116	2.31628
1.1165	7.25098
1.117	6.14319
1.1175	11.17859
1.118	13.797
1.1185	15.1062
1.119	8.25806
1.1195	15.50903
1.12	17.52319
1.1205	19.33594
1.121	20.1416
1.1215	13.89771
1.122	12.48779
1.1225	19.13452
1.123	26.08337
1.1235	23.16284
1.124	21.95435
1.1245	11.07788
1.125	16.81824
1.1255	17.6239
1.126	9.26514
1.1265	7.25098
1.127	11.78284
1.1275	12.08496
1.128	19.03381
1.1285	24.77417
1.129	25.78125
1.1295	24.47205
1.13	22.35718
1.1305	19.43665
1.131	18.73169
1.1315	18.73169
1.132	17.42249
1.1325	17.82532
1.133	12.5885
1.1335	11.07788
1.134	7.95593
1.1345	11.68213
1.135	11.58142
1.1355	4.33044
1.136	2.01416
1.1365	5.43823
1.137	2.31628
1.1375	0
1.138	-1.81274
1.1385	-1.2085
1.139	-0.50354
1.1395	-8.45947
1.14	-13.19275
1.1405	-15.40833
1.141	-17.12036
1.1415	-13.99841
1.142	-11.38
1.1425	-13.19275
1.143	-13.59558
1.1435	-9.97009
1.144	-8.35876
1.1445	-6.44531
1.145	-4.73328
1.1455	-3.42407
1.146	0.90637
1.1465	-1.81274
1.147	-0.50354
1.1475	0.30212
1.148	-0.20142
1.1485	8.15735
1.149	5.13611
1.1495	7.95593
1.15	7.5531
1.1505	17.82532
1.151	10.77576
1.1515	17.01965
1.152	7.15027
1.1525	5.33752
1.153	-0.50354
1.1535	-0.10071
1.154	-8.96301
1.1545	-12.38708
1.155	-11.88354
1.1555	-12.08496
1.156	-16.11328
1.1565	-18.63098
1.157	-16.3147
1.1575	-14.40125
1.158	-12.89062
1.1585	-6.84814
1.159	-2.11487
1.1595	7.04956
1.16	15.81116
1.1605	20.84656
1.161	22.76001
1.1615	16.91895
1.162	16.3147
1.1625	2.71912
1.163	0.40283
1.1635	-10.67505
1.164	-8.56018
1.1645	-2.41699
1.165	0.80566
1.1655	11.07788
1.166	18.53027
1.1665	28.19824
1.167	31.82373
1.1675	39.27612
1.168	37.46338
1.1685	44.11011
1.169	35.34851
1.1695	29.40674
1.17	15.81116
1.1705	20.44373
1.171	17.6239
1.1715	6.04248
1.172	-5.63965
1.1725	-10.67505
1.173	-13.69629
1.1735	-17.42249
1.174	-8.15735
1.1745	-1.71204
1.175	8.56018
1.1755	13.39417
1.176	7.25098
1.1765	15.1062
1.177	25.27771
1.1775	27.39258
1.178	33.9386
1.1785	34.84497
1.179	28.19824
1.1795	27.89612
1.18	20.54443
1.1805	10.47363
1.181	9.76868
1.1815	-3.62549
1.182	-4.33044
1.1825	-14.40125
1.183	-20.74585
1.1835	-24.37134
1.184	-42.90161
1.1845	-57.60498
1.185	-62.53967
1.1855	-53.47595
1.186	-48.33984
1.1865	-39.17542
1.187	-30.81665
1.1875	-15.60974
1.188	6.84814
1.1885	16.21399
1.189	28.39966
1.1895	37.7655
1.19	41.29028
1.1905	44.41223
1.191	44.11011
1.1915	41.69312
1.192	39.07471
1.1925	31.72302
1.193	16.91895
1.1935	10.17151
1.194	2.81982
1.1945	4.22974
1.195	5.43823
1.1955	11.58142
1.196	9.26514
1.1965	10.17151
1.197	17.92603
1.1975	17.32178
1.198	7.65381
1.1985	13.59558
1.199	4.73328
1.1995	5.84106
1.2	8.96301
1.2005	8.56018
1.201	10.0708
1.2015	8.8623
1.202	10.27222
1.2025	12.08496
1.203	5.53894
1.2035	5.53894
1.204	2.71912
1.2045	6.84814
1.205	2.61841
1.2055	9.36584
1.206	9.76868
1.2065	9.86938
1.207	-4.33044
1.2075	-19.23523
1.208	-24.27063
1.2085	-20.44373
1.209	-8.8623
1.2095	2.5177
1.21	12.78992
1.2105	21.45081
1.211	28.19824
1.2115	36.55701
1.212	44.31152
1.2125	38.87329
1.213	43.20374
1.2135	37.7655
1.214	35.95276
1.2145	34.64355
1.215	26.3855
1.2155	32.52869
1.216	19.33594
1.2165	20.74585
1.217	15.50903
1.2175	14.09912
1.218	9.76868
1.2185	7.35168
1.219	8.96301
1.2195	3.32336
1.22	-2.41699
1.2205	-2.41699
1.221	-6.74744
1.2215	-11.2793
1.222	-13.19275
1.2225	-27.99683
1.223	-24.06921
1.2235	-24.06921
1.224	-18.02673
1.2245	-24.16992
1.225	-25.177
1.2255	-24.57275
1.226	-24.67346
1.2265	-20.54443
1.227	-14.80408
1.2275	-4.93469
1.228	1.51062
1.2285	7.45239
1.229	16.81824
1.2295	15.60974
1.23	21.3501
1.2305	21.95435
1.231	28.50037
1.2315	28.19824
1.232	23.06213
1.2325	10.67505
1.233	6.2439
1.2335	4.02832
1.234	0.40283
1.2345	-3.22266
1.235	-2.11487
1.2355	0.80566
1.236	11.07788
1.2365	9.86938
1.237	12.08496
1.2375	17.01965
1.238	8.8623
1.2385	5.23682
1.239	4.12903
1.2395	2.5177
1.24	1.00708
1.2405	-1.51062
1.241	-0.80566
1.2415	1.71204
1.242	1.51062
1.2425	-2.92053
1.243	-5.13611
1.2435	-21.45081
1.244	-24.16992
1.2445	-27.6947
1.245	-22.86072
1.2455	-18.22815
1.246	-12.48779
1.2465	-10.37292
1.247	-7.95593
1.2475	-2.61841
1.248	-6.44531
1.2485	-6.2439
1.249	-4.83398
1.2495	-6.3446
1.25	-9.26514
1.2505	-18.12744
1.251	-15.60974
1.2515	-15.20691
1.252	-13.99841
1.2525	-1.91345
1.253	3.22266
1.2535	10.87646
1.254	8.05664
1.2545	12.89062
1.255	20.84656
1.2555	19.33594
1.256	19.94019
1.2565	7.45239
1.257	2.92053
1.2575	-9.36584
1.258	-5.13611
1.2585	-2.21558
1.259	3.12195
1.2595	14.80408
1.26	21.14868
1.2605	27.6947
1.261	24.57275
1.2615	24.57275
1.262	20.84656
1.2625	18.93311
1.263	12.89062
1.2635	18.73169
1.264	21.75293
1.2645	21.24939
1.265	24.37134
1.2655	29.30603
1.266	28.60107
1.2665	26.48621
1.267	25.37842
1.2675	24.77417
1.268	24.77417
1.2685	24.97559
1.269	17.82532
1.2695	15.00549
1.27	11.98425
1.2705	4.93469
1.271	0.90637
1.2715	2.01416
1.272	4.43115
1.2725	-0.20142
1.273	3.92761
1.2735	5.43823
1.274	4.73328
1.2745	0.20142
1.275	6.44531
1.2755	-6.2439
1.276	-18.8324
1.2765	-18.32886
1.277	-13.797
1.2775	-17.32178
1.278	-12.99133
1.2785	-5.53894
1.279	-5.33752
1.2795	-3.22266
1.28	-0.60425
1.2805	1.71204
1.281	3.8269
1.2815	3.62549
1.282	3.02124
1.2825	-0.30212
1.283	8.8623
1.2835	1.3092
1.284	4.83398
1.2845	1.3092
1.285	-6.74744
1.2855	-18.22815
1.286	-21.14868
1.2865	-27.89612
1.287	-18.73169
1.2875	-17.12036
1.288	-11.58142
1.2885	-4.73328
1.289	3.62549
1.2895	5.94177
1.29	5.53894
1.2905	14.80408
1.291	18.22815
1.2915	17.72461
1.292	15.20691
1.2925	12.68921
1.293	5.33752
1.2935	3.52478
1.294	-5.23682
1.2945	-10.67505
1.295	-10.37292
1.2955	-14.60266
1.296	-18.12744
1.2965	-21.85364
1.297	-14.50195
1.2975	-15.00549
1.298	-12.38708
1.2985	-12.48779
1.299	-10.27222
1.2995	-8.25806
1.3	-6.74744
1.3005	-0.30212
1.301	6.54602
1.3015	11.38
1.302	15.30762
1.3025	19.53735
1.303	18.32886
1.3035	18.63098
1.304	13.09204
1.3045	1.10779
1.305	4.22974
1.3055	7.35168
1.306	8.45947
1.3065	15.60974
1.307	7.25098
1.3075	4.12903
1.308	6.54602
1.3085	12.38708
1.309	10.0708
1.3095	9.46655
1.31	11.07788
1.3105	3.92761
1.311	1.40991
1.3115	5.84106
1.312	9.06372
1.3125	7.75452
1.313	3.62549
1.3135	2.21558
1.314	-4.53186
1.3145	-11.2793
1.315	-12.89062
1.3155	-4.33044
1.316	-2.71912
1.3165	0.40283
1.317	7.95593
1.3175	10.37292
1.318	11.38
1.3185	7.25098
1.319	-1.81274
1.3195	-5.13611
1.32	-9.56726
1.3205	-8.96301
1.321	-11.17859
1.3215	-11.98425
1.322	-19.53735
1.3225	-27.6947
1.323	-30.61523
1.3235	-28.29895
1.324	-21.85364
1.3245	-10.77576
1.325	-1.10779
1.3255	11.07788
1.326	13.797
1.3265	24.67346
1.327	20.1416
1.3275	18.42957
1.328	18.53027
1.3285	22.15576
1.329	17.82532
1.3295	16.11328
1.33	18.63098
1.3305	15.00549
1.331	10.27222
1.3315	11.68213
1.332	11.38
1.3325	11.07788
1.333	5.23682
1.3335	2.11487
1.334	0
1.3345	7.85522
1.335	6.64673
1.3355	17.82532
1.336	25.47913
1.3365	26.3855
1.337	15.60974
1.3375	11.38
1.338	12.5885
1.3385	13.19275
1.339	5.53894
1.3395	12.38708
1.34	8.05664
1.3405	15.91187
1.341	12.68921
1.3415	18.22815
1.342	25.177
1.3425	22.35718
1.343	23.36426
1.3435	17.12036
1.344	12.08496
1.3445	7.75452
1.345	1.51062
1.3455	4.83398
1.346	0
1.3465	-0.40283
1.347	7.65381
1.3475	9.26514
1.348	13.19275
1.3485	13.89771
1.349	17.52319
1.3495	20.24231
1.35	18.42957
1.3505	18.22815
1.351	17.52319
1.3515	20.34302
1.352	11.78284
1.3525	0.40283
1.353	2.21558
1.3535	0.90637
1.354	5.43823
1.3545	1.40991
1.355	4.73328
1.3555	-0.90637
1.356	6.84814
1.3565	11.48071
1.357	17.82532
1.3575	14.90479
1.358	12.28638
1.3585	3.52478
1.359	-11.88354
1.3595	-17.42249
1.36	-20.54443
1.3605	-16.01257
1.361	-1.61133
1.3615	0.40283
1.362	3.02124
1.3625	9.46655
1.363	7.75452
1.3635	5.43823
1.364	0.80566
1.3645	6.64673
1.365	10.77576
1.3655	9.97009
1.366	12.48779
1.3665	12.28638
1.367	16.71753
1.3675	8.7616
1.368	8.56018
1.3685	4.12903
1.369	3.7262
1.3695	1.61133
1.37	0.70496
1.3705	-0.70496
1.371	0.60425
1.3715	0.50354
1.372	-3.02124
1.3725	-8.66089
1.373	-2.81982
1.3735	-3.7262
1.374	-1.61133
1.3745	-0.60425
1.375	0.80566
1.3755	0.40283
1.376	6.2439
1.3765	11.17859
1.377	10.97717
1.3775	1.61133
1.378	-1.81274
1.3785	-9.16443
1.379	-18.53027
1.3795	-23.76709
1.38	-25.07629
1.3805	-35.75134
1.381	-39.07471
1.3815	-35.04639
1.382	-25.98267
1.3825	-12.08496
1.383	-0.60425
1.3835	5.94177
1.384	18.63098
1.3845	28.29895
1.385	28.80249
1.3855	32.42798
1.386	35.54993
1.3865	33.53577
1.387	37.46338
1.3875	33.43506
1.388	23.26355
1.3885	13.19275
1.389	4.43115
1.3895	-0.50354
1.39	-5.43823
1.3905	3.02124
1.391	5.23682
1.3915	-5.94177
1.392	-7.04956
1.3925	-6.54602
1.393	-3.02124
1.3935	-5.94177
1.394	-11.98425
1.3945	-7.95593
1.395	-6.14319
1.3955	-2.01416
1.396	-0.60425
1.3965	6.14319
1.397	10.17151
1.3975	10.77576
1.398	5.63965
1.3985	-3.22266
1.399	-7.25098
1.3995	-1.61133
1.4	-4.93469
1.4005	-6.14319
1.401	0.50354
1.4015	10.97717
1.402	23.66638
1.4025	28.80249
1.403	37.36267
1.4035	40.48462
1.404	34.94568
1.4045	36.85913
1.405	35.75134
1.4055	33.23364
1.406	36.15417
1.4065	24.97559
1.407	35.2478
1.4075	32.12585
1.408	20.84656
1.4085	11.88354
1.409	13.797
1.4095	19.63806
1.41	18.12744
1.4105	18.02673
1.411	12.99133
1.4115	7.75452
1.412	8.8623
1.4125	9.46655
1.413	12.38708
1.4135	8.66089
1.414	9.86938
1.4145	11.48071
1.415	2.71912
1.4155	11.07788
1.416	11.2793
1.4165	14.50195
1.417	11.38
1.4175	8.96301
1.418	5.74036
1.4185	5.63965
1.419	-2.31628
1.4195	9.86938
1.42	7.5531
1.4205	12.78992
1.421	11.2793
1.4215	10.97717
1.422	15.00549
1.4225	7.65381
1.423	7.15027
1.4235	2.5177
1.424	-2.21558
1.4245	-2.81982
1.425	-13.19275
1.4255	-24.67346
1.426	-32.52869
1.4265	-37.26196
1.427	-33.63647
1.4275	-32.62939
1.428	-27.89612
1.4285	-25.88196
1.429	-20.84656
1.4295	-18.73169
1.43	-19.33594
1.4305	-24.97559
1.431	-16.91895
1.4315	-13.69629
1.432	-12.68921
1.4325	-9.16443
1.433	-6.54602
1.4335	-4.53186
1.434	-5.43823
1.4345	-4.33044
1.435	-4.22974
1.4355	1.51062
1.436	7.35168
1.4365	10.37292
1.437	13.49487
1.4375	22.86072
1.438	20.74585
1.4385	-0.50354
1.439	-42.29736
1.4395	-66.6687
1.44	-73.41614
1.4405	-70.19348
1.441	-50.2533
1.4415	-43.50586
1.442	-22.76001
1.4425	3.62549
1.443	20.64514
1.4435	43.10303
1.444	50.05188
1.4445	60.52551
1.445	60.92834
1.4455	56.69861
1.446	56.49719
1.4465	55.99365
1.447	58.30994
1.4475	50.75684
1.448	42.19666
1.4485	32.7301
1.449	23.06213
1.4495	15.30762
1.45	17.32178
1.4505	24.87488
1.451	31.52161
1.4515	36.05347
1.452	35.04639
1.4525	30.2124
1.453	21.75293
1.4535	19.73877
1.454	19.63806
1.4545	9.06372
1.455	10.57434
1.4555	14.70337
1.456	15.40833
1.4565	7.75452
1.457	5.74036
1.4575	11.98425
1.458	1.40991
1.4585	5.13611
1.459	6.04248
1.4595	2.61841
1.46	0.80566
1.4605	6.3446
1.461	9.06372
1.4615	12.08496
1.462	14.50195
1.4625	12.5885
1.463	14.90479
1.4635	19.53735
1.464	25.57983
1.4645	22.45789
1.465	17.22107
1.4655	17.32178
1.466	8.45947
1.4665	13.89771
1.467	19.73877
1.4675	19.13452
1.468	13.797
1.4685	12.78992
1.469	11.88354
1.4695	10.27222
1.47	15.91187
1.4705	9.66797
1.471	10.17151
1.4715	7.25098
1.472	0.80566
1.4725	-0.60425
1.473	0.50354
1.4735	-3.62549
1.474	2.01416
1.4745	4.02832
1.475	1.81274
1.4755	-7.5531
1.476	-3.42407
1.4765	-2.01416
1.477	-0.30212
1.4775	-4.02832
1.478	7.5531
1.4785	-5.53894
1.479	-12.78992
1.4795	-15.30762
1.48	-26.68762
1.4805	-26.78833
1.481	-27.39258
1.4815	-28.9032
1.482	-30.31311
1.4825	-35.75134
1.483	-45.82214
1.4835	-70.59631
1.484	-89.42871
1.4845	-118.43262
1.485	-141.19263
1.4855	-129.30908
1.486	-119.74182
1.4865	-101.11084
1.487	-70.49561
1.4875	-41.39099
1.488	3.32336
1.4885	31.92444
1.489	55.49011
1.4895	68.58215
1.49	80.66711
1.4905	95.67261
1.491	95.87402
1.4915	95.16907
1.492	93.55774
1.4925	94.66553
1.493	90.23438
1.4935	90.33508
1.494	83.18481
1.4945	73.21472
1.495	59.51843
1.4955	51.05896
1.496	50.15259
1.4965	35.95276
1.497	24.37134
1.4975	20.34302
1.498	23.66638
1.4985	19.13452
1.499	16.81824
1.4995	8.25806
1.5	5.74036
1.5005	4.73328
1.501	5.63965
1.5015	1.40991
1.502	6.2439
1.5025	2.11487
1.503	0.40283
1.5035	3.8269
1.504	1.61133
1.5045	1.91345
1.505	6.54602
1.5055	4.12903
1.506	5.33752
1.5065	13.49487
1.507	10.37292
1.5075	15.1062
1.508	17.12036
1.5085	22.6593
1.509	19.13452
1.5095	15.1062
1.51	7.5531
1.5105	7.5531
1.511	3.8269
1.5115	3.12195
1.512	0.50354
1.5125	-3.22266
1.513	-2.21558
1.5135	-7.45239
1.514	-2.81982
1.5145	0.50354
1.515	-3.32336
1.5155	-1.81274
1.516	0.60425
1.5165	-2.01416
1.517	-3.32336
1.5175	2.01416
1.518	1.61133
1.5185	3.62549
1.519	4.93469
1.5195	2.71912
1.52	-0.10071
1.5205	-3.42407
1.521	-0.10071
1.5215	-4.53186
1.522	-7.95593
1.5225	-0.20142
1.523	4.43115
1.5235	-1.71204
1.524	-0.10071
1.5245	4.33044
1.525	3.12195
1.5255	5.43823
1.526	2.21558
1.5265	3.8269
1.527	4.83398
1.5275	4.53186
1.528	4.12903
1.5285	4.43115
1.529	-8.45947
1.5295	-28.70178
1.53	-34.24072
1.5305	-40.1825
1.531	-31.72302
1.5315	-30.51453
1.532	-19.53735
1.5325	-8.7616
1.533	2.11487
1.5335	9.66797
1.534	10.57434
1.5345	7.85522
1.535	12.48779
1.5355	17.32178
1.536	21.65222
1.5365	18.02673
1.537	15.60974
1.5375	17.6239
1.538	12.28638
1.5385	9.46655
1.539	5.33752
1.5395	1.51062
1.54	0.50354
1.5405	2.81982
1.541	2.81982
1.5415	-1.51062
1.542	0.90637
1.5425	2.92053
1.543	2.01416
1.5435	-13.39417
1.544	-2.01416
1.5445	2.21558
1.545	2.92053
1.5455	6.74744
1.546	17.72461
1.5465	22.05505
1.547	19.13452
1.5475	15.30762
1.548	12.5885
1.5485	18.12744
1.549	12.99133
1.5495	4.63257
1.55	6.44531
1.5505	6.94885
1.551	8.45947
1.5515	21.04797
1.552	15.20691
1.5525	14.40125
1.553	13.29346
1.5535	18.42957
1.554	20.1416
1.5545	24.16992
1.555	27.19116
1.5555	31.01807
1.556	31.01807
1.5565	27.09045
1.557	19.13452
1.5575	11.48071
1.558	8.05664
1.5585	12.5885
1.559	9.56726
1.5595	8.56018
1.56	15.81116
1.5605	17.72461
1.561	13.99841
1.5615	8.45947
1.562	11.88354
1.5625	6.84814
1.563	7.45239
1.5635	12.89062
1.564	18.42957
1.5645	20.54443
1.565	26.78833
1.5655	26.18408
1.566	25.47913
1.5665	16.3147
1.567	11.38
1.5675	4.73328
1.568	-1.81274
1.5685	2.92053
1.569	6.64673
1.5695	-0.10071
1.57	2.41699
1.5705	-5.84106
1.571	-7.15027
1.5715	-7.15027
1.572	-10.97717
1.5725	-7.75452
1.573	-8.8623
1.5735	-8.45947
1.574	-0.50354
1.5745	-4.43115
1.575	-8.66089
1.5755	-4.63257
1.576	-1.81274
1.5765	-6.2439
1.577	-4.22974
1.5775	-1.10779
1.578	-2.92053
1.5785	-1.10779
1.579	0.90637
1.5795	2.31628
1.58	0.90637
1.5805	1.71204
1.581	4.83398
1.5815	5.74036
1.582	4.53186
1.5825	4.02832
1.583	4.63257
1.5835	17.52319
1.584	22.55859
1.5845	22.05505
1.585	22.86072
1.5855	20.44373
1.586	19.73877
1.5865	12.48779
1.587	17.52319
1.5875	15.91187
1.588	15.91187
1.5885	13.09204
1.589	6.2439
1.5895	7.5531
1.59	5.53894
1.5905	9.36584
1.591	10.57434
1.5915	8.96301
1.592	12.48779
1.5925	10.57434
1.593	13.59558
1.5935	12.89062
1.594	20.54443
1.5945	12.48779
1.595	10.87646
1.5955	9.66797
1.596	13.09204
1.5965	6.54602
1.597	6.74744
1.5975	0
1.598	4.93469
1.5985	0.30212
1.599	-9.36584
1.5995	-13.89771
1.6	-15.91187
1.6005	-23.8678
1.601	-16.11328
1.6015	-17.12036
1.602	-15.50903
1.6025	-10.67505
1.603	-5.43823
1.6035	3.62549
1.604	8.45947
1.6045	10.97717
1.605	14.60266
1.6055	3.92761
1.606	-13.09204
1.6065	-22.25647
1.607	-28.09753
1.6075	-25.98267
1.608	-10.17151
1.6085	-9.16443
1.609	-1.51062
1.6095	5.43823
1.61	6.04248
1.6105	3.02124
1.611	-6.04248
1.6115	-16.11328
1.612	-38.87329
1.6125	-49.44763
1.613	-49.14551
1.6135	-37.7655
1.614	-23.8678
1.6145	-4.12903
1.615	8.25806
1.6155	31.32019
1.616	36.25488
1.6165	47.23206
1.617	54.98657
1.6175	61.12976
1.618	56.5979
1.6185	55.49011
1.619	54.18091
1.6195	43.60657
1.62	47.93701
1.6205	55.08728
1.621	53.77808
1.6215	54.58374
1.622	55.99365
1.6225	50.354
1.623	47.43347
1.6235	39.27612
1.624	30.01099
1.6245	28.39966
1.625	28.60107
1.6255	20.94727
1.626	21.04797
1.6265	10.17151
1.627	11.17859
1.6275	16.11328
1.628	10.97717
1.6285	12.78992
1.629	6.94885
1.6295	3.22266
1.63	-1.51062
1.6305	-7.5531
1.631	-8.25806
1.6315	0.50354
1.632	-4.22974
1.6325	-21.55151
1.633	-39.27612
1.6335	-43.80798
1.634	-45.11719
1.6345	-40.98816
1.635	-32.12585
1.6355	-22.45789
1.636	-3.62549
1.6365	3.42407
1.637	14.50195
1.6375	15.00549
1.638	15.91187
1.6385	10.47363
1.639	11.78284
1.6395	14.50195
1.64	12.78992
1.6405	17.52319
1.641	22.55859
1.6415	19.23523
1.642	17.42249
1.6425	13.09204
1.643	10.27222
1.6435	10.27222
1.644	6.3446
1.6445	3.52478
1.645	8.45947
1.6455	10.17151
1.646	11.17859
1.6465	9.36584
1.647	11.07788
1.6475	8.15735
1.648	2.71912
1.6485	1.00708
1.649	-2.21558
1.6495	-0.80566
1.65	-0.50354
1.6505	-3.62549
1.651	2.71912
1.6515	-0.80566
1.652	2.21558
1.6525	-0.20142
1.653	-2.5177
1.6535	-1.51062
1.654	-8.56018
1.6545	-8.15735
1.655	-9.36584
1.6555	-7.45239
1.656	-7.15027
1.6565	-4.12903
1.657	1.81274
1.6575	0.10071
1.658	5.33752
1.6585	-0.40283
1.659	4.12903
1.6595	-1.40991
1.66	-15.00549
1.6605	-32.7301
1.661	-38.77258
1.6615	-49.44763
1.662	-42.19666
1.6625	-40.2832
1.663	-37.26196
1.6635	-20.84656
1.664	-0.10071
1.6645	11.17859
1.665	25.57983
1.6655	35.14709
1.666	44.21082
1.6665	42.59949
1.667	48.94409
1.6675	48.03772
1.668	46.32568
1.6685	43.90869
1.669	41.69312
1.6695	43.10303
1.67	35.44922
1.6705	28.9032
1.671	27.09045
1.6715	17.72461
1.672	17.42249
1.6725	17.72461
1.673	7.75452
1.6735	7.65381
1.674	6.74744
1.6745	-1.91345
1.675	0.20142
1.6755	-7.5531
1.676	0.20142
1.6765	-1.40991
1.677	2.71912
1.6775	6.94885
1.678	3.02124
1.6785	0.30212
1.679	0.60425
1.6795	-0.20142
1.68	-3.92761
1.6805	3.12195
1.681	1.3092
1.6815	0.50354
1.682	3.32336
1.6825	-1.91345
1.683	3.7262
1.6835	6.04248
1.684	-1.91345
1.6845	-7.95593
1.685	-20.54443
1.6855	-21.65222
1.686	-19.53735
1.6865	-16.81824
1.687	-8.7616
1.6875	-2.71912
1.688	4.73328
1.6885	7.04956
1.689	18.12744
1.6895	23.66638
1.69	24.27063
1.6905	14.19983
1.691	10.0708
1.6915	0.70496
1.692	-8.15735
1.6925	-16.61682
1.693	-14.70337
1.6935	-14.19983
1.694	-9.36584
1.6945	-2.81982
1.695	-5.23682
1.6955	2.21558
1.696	9.26514
1.6965	12.18567
1.697	8.56018
1.6975	11.68213
1.698	15.71045
1.6985	9.76868
1.699	4.02832
1.6995	3.42407
1.7	0.70496
1.7005	2.31628
1.701	8.45947
1.7015	14.19983
1.702	19.94019
1.7025	27.99683
1.703	31.82373
1.7035	28.80249
1.704	18.42957
1.7045	21.04797
1.705	19.23523
1.7055	23.76709
1.706	26.18408
1.7065	17.12036
1.707	10.67505
1.7075	-0.40283
1.708	-9.46655
1.7085	-11.17859
1.709	1.71204
1.7095	2.21558
1.71	4.93469
1.7105	14.80408
1.711	23.16284
1.7115	24.67346
1.712	29.40674
1.7125	30.01099
1.713	31.92444
1.7135	23.06213
1.714	19.13452
1.7145	19.13452
1.715	9.66797
1.7155	8.15735
1.716	6.2439
1.7165	8.56018
1.717	4.33044
1.7175	12.08496
1.718	2.81982
1.7185	-1.81274
1.719	0.80566
1.7195	0.40283
1.72	-4.83398
1.7205	-1.40991
1.721	-9.26514
1.7215	-4.22974
1.722	-4.12903
1.7225	-4.33044
1.723	-0.40283
1.7235	-0.80566
1.724	6.54602
1.7245	6.44531
1.725	1.2085
1.7255	6.64673
1.726	2.41699
1.7265	-5.13611
1.727	-13.29346
1.7275	-22.55859
1.728	-26.3855
1.7285	-26.3855
1.729	-16.91895
1.7295	-9.76868
1.73	-6.3446
1.7305	2.11487
1.731	14.90479
1.7315	16.81824
1.732	16.61682
1.7325	19.63806
1.733	19.73877
1.7335	20.64514
1.734	25.57983
1.7345	25.57983
1.735	21.95435
1.7355	23.46497
1.736	22.45789
1.7365	21.85364
1.737	17.72461
1.7375	12.99133
1.738	5.33752
1.7385	4.73328
1.739	4.53186
1.7395	5.13611
1.74	6.44531
1.7405	10.17151
1.741	12.28638
1.7415	11.98425
1.742	12.48779
1.7425	1.00708
1.743	7.25098
1.7435	3.12195
1.744	5.94177
1.7445	6.04248
1.745	10.17151
1.7455	12.38708
1.746	7.95593
1.7465	6.74744
1.747	-1.10779
1.7475	-4.53186
1.748	-10.27222
1.7485	-19.23523
1.749	-22.55859
1.7495	-16.91895
1.75	-7.75452
1.7505	-1.61133
1.751	0.80566
1.7515	5.94177
1.752	11.2793
1.7525	10.27222
1.753	12.08496
1.7535	8.8623
1.754	6.44531
1.7545	9.16443
1.755	6.94885
1.7555	8.35876
1.756	8.35876
1.7565	2.01416
1.757	0.20142
1.7575	5.43823
1.758	-1.00708
1.7585	-4.12903
1.759	-4.43115
1.7595	-3.12195
1.76	0
1.7605	3.62549
1.761	3.8269
1.7615	-0.80566
1.762	2.81982
1.7625	7.15027
1.763	4.33044
1.7635	4.63257
1.764	2.31628
1.7645	-4.53186
1.765	-2.61841
1.7655	1.61133
1.766	0.40283
1.7665	3.62549
1.767	6.2439
1.7675	3.42407
1.768	10.67505
1.7685	6.14319
1.769	11.88354
1.7695	13.09204
1.77	15.81116
1.7705	14.60266
1.771	15.20691
1.7715	15.1062
1.772	16.21399
1.7725	16.3147
1.773	14.19983
1.7735	1.61133
1.774	-8.56018
1.7745	-16.61682
1.775	-23.26355
1.7755	-36.15417
1.776	-56.5979
1.7765	-61.6333
1.777	-54.48303
1.7775	-57.50427
1.778	-46.62781
1.7785	-30.01099
1.779	-11.98425
1.7795	-1.91345
1.78	8.15735
1.7805	17.22107
1.781	18.32886
1.7815	23.56567
1.782	17.32178
1.7825	5.33752
1.783	2.92053
1.7835	2.21558
1.784	8.7616
1.7845	11.48071
1.785	13.99841
1.7855	20.44373
1.786	23.16284
1.7865	27.59399
1.787	34.44214
1.7875	34.44214
1.788	37.86621
1.7885	36.35559
1.789	30.71594
1.7895	28.39966
1.79	21.3501
1.7905	22.15576
1.791	26.08337
1.7915	26.18408
1.792	36.95984
1.7925	36.35559
1.793	32.93152
1.7935	32.83081
1.794	33.23364
1.7945	35.95276
1.795	32.93152
1.7955	27.49329
1.796	25.78125
1.7965	12.48779
1.797	21.85364
1.7975	18.93311
1.798	14.30054
1.7985	17.12036
1.799	22.25647
1.7995	22.86072
1.8	17.82532
1.8005	17.92603
1.801	21.45081
1.8015	15.40833
1.802	14.50195
1.8025	14.30054
1.803	14.60266
1.8035	11.17859
1.804	5.43823
1.8045	-2.11487
1.805	-2.31628
1.8055	-1.2085
1.806	-5.94177
1.8065	0.10071
1.807	1.61133
1.8075	-3.22266
1.808	1.2085
1.8085	-7.04956
1.809	-2.31628
1.8095	-0.50354
1.81	-4.63257
1.8105	-3.92761
1.811	-4.33044
1.8115	-6.74744
1.812	-5.63965
1.8125	-0.20142
1.813	-2.81982
1.8135	-4.93469
1.814	4.12903
1.8145	-4.12903
1.815	-2.41699
1.8155	1.00708
1.816	-2.31628
1.8165	-0.70496
1.817	-4.83398
1.8175	-7.25098
1.818	-3.42407
1.8185	1.61133
1.819	3.62549
1.8195	5.53894
1.82	4.43115
1.8205	6.84814
1.821	0.10071
1.8215	-2.31628
1.822	1.3092
1.8225	-4.22974
1.823	-3.52478
1.8235	-9.06372
1.824	-4.83398
1.8245	-2.01416
1.825	-2.61841
1.8255	-3.62549
1.826	-4.93469
1.8265	-4.02832
1.827	-5.53894
1.8275	1.10779
1.828	0.40283
1.8285	-3.12195
1.829	0.20142
1.8295	-0.30212
1.83	-2.41699
1.8305	2.41699
1.831	0.20142
1.8315	0.30212
1.832	-2.41699
1.8325	-3.42407
1.833	3.22266
1.8335	7.15027
1.834	3.92761
1.8345	6.54602
1.835	1.00708
1.8355	-0.70496
1.836	2.92053
1.8365	3.12195
1.837	0.90637
1.8375	2.61841
1.838	-7.85522
1.8385	-16.3147
1.839	-15.91187
1.8395	-13.09204
1.84	-11.68213
1.8405	-8.15735
1.841	-1.91345
1.8415	3.02124
1.842	6.14319
1.8425	9.36584
1.843	15.00549
1.8435	9.97009
1.844	11.38
1.8445	13.59558
1.845	8.45947
1.8455	9.36584
1.846	8.35876
1.8465	5.94177
1.847	9.16443
1.8475	11.58142
1.848	10.97717
1.8485	8.66089
1.849	5.74036
1.8495	-3.52478
1.85	-1.10779
1.8505	-0.40283
1.851	2.61841
1.8515	-3.12195
1.852	0.30212
1.8525	-5.33752
1.853	-0.90637
1.8535	-5.13611
1.854	-8.35876
1.8545	-0.20142
1.855	4.12903
1.8555	3.8269
1.856	0.50354
1.8565	-1.2085
1.857	-4.43115
1.8575	-3.02124
1.858	-6.54602
1.8585	-5.63965
1.859	-5.63965
1.8595	-2.11487
1.86	-2.61841
1.8605	-2.31628
1.861	5.43823
1.8615	6.44531
1.862	0
1.8625	9.26514
1.863	12.18567
1.8635	6.84814
1.864	6.44531
1.8645	0.30212
1.865	-0.50354
1.8655	4.93469
1.866	-2.81982
1.8665	-0.60425
1.867	-1.00708
1.8675	-4.22974
1.868	0.30212
1.8685	-0.50354
1.869	-5.43823
1.8695	-4.83398
1.87	-0.20142
1.8705	0.90637
1.871	2.5177
1.8715	3.32336
1.872	9.86938
1.8725	6.3446
1.873	2.41699
1.8735	5.13611
1.874	7.04956
1.8745	5.53894
1.875	6.04248
1.8755	4.73328
1.876	4.02832
1.8765	5.23682
1.877	1.40991
1.8775	8.05664
1.878	-0.20142
1.8785	-5.74036
1.879	-22.55859
1.8795	-17.42249
1.88	-33.9386
1.8805	-33.9386
1.881	-31.11877
1.8815	-30.71594
1.882	-17.6239
1.8825	-5.74036
1.883	-2.81982
1.8835	2.92053
1.884	3.12195
1.8845	8.15735
1.885	10.27222
1.8855	11.17859
1.886	12.89062
1.8865	15.81116
1.887	18.53027
1.8875	14.60266
1.888	15.30762
1.8885	8.56018
1.889	7.5531
1.8895	9.97009
1.89	4.02832
1.8905	5.43823
1.891	3.8269
1.8915	4.43115
1.892	8.7616
1.8925	13.39417
1.893	15.60974
1.8935	14.09912
1.894	18.22815
1.8945	17.6239
1.895	14.70337
1.8955	15.60974
1.896	16.3147
1.8965	27.6947
1.897	25.07629
1.8975	19.83948
1.898	10.57434
1.8985	5.63965
1.899	-3.62549
1.8995	-9.66797
1.9	-9.86938
1.9005	-18.53027
1.901	-17.22107
1.9015	-22.45789
1.902	-27.99683
1.9025	-31.72302
1.903	-27.49329
1.9035	-16.81824
1.904	-13.89771
1.9045	-10.57434
1.905	-7.25098
1.9055	4.02832
1.906	6.04248
1.9065	9.36584
1.907	9.36584
1.9075	1.10779
1.908	4.22974
1.9085	7.04956
1.909	12.5885
1.9095	11.07788
1.91	16.01257
1.9105	19.63806
1.911	25.98267
1.9115	25.27771
1.912	13.19275
1.9125	15.40833
1.913	16.81824
1.9135	10.27222
1.914	3.7262
1.9145	3.7262
1.915	2.5177
1.9155	4.73328
1.916	2.5177
1.9165	8.96301
1.917	9.36584
1.9175	10.77576
1.918	16.21399
1.9185	19.33594
1.919	26.78833
1.9195	16.3147
1.92	20.24231
1.9205	10.77576
1.921	8.8623
1.9215	10.0708
1.922	13.99841
1.9225	11.78284
1.923	6.64673
1.9235	6.04248
1.924	5.94177
1.9245	10.77576
1.925	13.29346
1.9255	12.38708
1.926	11.88354
1.9265	5.63965
1.927	9.76868
1.9275	9.76868
1.928	5.13611
1.9285	-1.3092
1.929	-6.14319
1.9295	-17.01965
1.93	-22.86072
1.9305	-23.06213
1.931	-21.65222
1.9315	-23.16284
1.932	-13.09204
1.9325	-10.87646
1.933	-1.51062
1.9335	9.26514
1.934	19.83948
1.9345	28.50037
1.935	37.46338
1.9355	41.18958
1.936	39.77966
1.9365	38.47046
1.937	40.2832
1.9375	34.24072
1.938	25.88196
1.9385	15.50903
1.939	20.24231
1.9395	16.61682
1.94	15.00549
1.9405	17.6239
1.941	14.19983
1.9415	12.18567
1.942	4.93469
1.9425	4.02832
1.943	2.21558
1.9435	4.63257
1.944	8.96301
1.9445	4.02832
1.945	4.33044
1.9455	2.92053
1.946	6.04248
1.9465	2.41699
1.947	3.32336
1.9475	1.10779
1.948	3.32336
1.9485	0.90637
1.949	2.5177
1.9495	5.84106
1.95	5.0354
1.9505	8.96301
1.951	9.36584
1.9515	9.46655
1.952	7.75452
1.9525	6.74744
1.953	3.8269
1.9535	2.11487
1.954	-3.92761
1.9545	12.38708
1.955	10.47363
1.9555	3.8269
1.956	4.12903
1.9565	3.8269
1.957	5.84106
1.9575	4.53186
1.958	11.2793
1.9585	8.45947
1.959	15.20691
1.9595	20.64514
1.96	19.23523
1.9605	23.16284
1.961	17.22107
1.9615	15.1062
1.962	14.40125
1.9625	14.19983
1.963	11.2793
1.9635	4.93469
1.964	-5.43823
1.9645	-7.35168
1.965	-2.92053
1.9655	-9.26514
1.966	-11.88354
1.9665	-6.3446
1.967	-9.97009
1.9675	-6.64673
1.968	2.92053
1.9685	6.74744
1.969	5.53894
1.9695	4.53186
1.97	-1.2085
1.9705	-1.51062
1.971	-2.01416
1.9715	-5.13611
1.972	-9.97009
1.9725	-12.89062
1.973	-10.57434
1.9735	-7.65381
1.974	-3.02124
1.9745	-2.81982
1.975	1.51062
1.9755	12.99133
1.976	18.73169
1.9765	21.3501
1.977	28.80249
1.9775	33.23364
1.978	34.74426
1.9785	31.82373
1.979	28.19824
1.9795	24.27063
1.98	15.50903
1.9805	7.95593
1.981	10.67505
1.9815	5.63965
1.982	0
1.9825	-0.80566
1.983	2.5177
1.9835	5.23682
1.984	6.64673
1.9845	15.20691
1.985	14.40125
1.9855	13.49487
1.986	11.17859
1.9865	19.63806
1.987	19.53735
1.9875	23.76709
1.988	23.8678
1.9885	18.42957
1.989	12.08496
1.9895	9.66797
1.99	12.48779
1.9905	11.17859
1.991	11.17859
1.9915	9.66797
1.992	13.29346
1.9925	17.42249
1.993	17.6239
1.9935	19.53735
1.994	22.45789
1.9945	20.34302
1.995	21.14868
1.9955	22.15576
1.996	23.76709
1.9965	29.91028
1.997	16.51611
1.9975	15.1062
1.998	3.7262
1.9985	1.61133
1.999	-3.52478
1.9995	-4.02832
2	-8.15735
2.0005	-9.97009
2.001	-11.88354
2.0015	-23.16284
2.002	-23.16284
2.0025	-25.37842
2.003	-23.76709
2.0035	-16.21399
2.004	-10.47363
2.0045	-5.13611
2.005	2.92053
2.0055	0.70496
2.006	-0.50354
2.0065	-8.05664
2.007	-2.5177
2.0075	1.3092
2.008	-2.31628
2.0085	7.04956
2.009	8.56018
2.0095	-2.01416
2.01	-6.94885
2.0105	-3.8269
2.011	0.60425
2.0115	-1.3092
2.012	6.04248
2.0125	11.17859
2.013	12.5885
2.0135	21.55151
2.014	26.28479
2.0145	35.75134
2.015	35.85205
2.0155	37.16125
2.016	35.65063
2.0165	38.36975
2.017	34.14001
2.0175	36.75842
2.018	36.85913
2.0185	40.48462
2.019	42.8009
2.0195	34.74426
2.02	21.3501
2.0205	9.36584
2.021	5.84106
2.0215	1.51062
2.022	8.05664
2.0225	0.40283
2.023	0.30212
2.0235	5.33752
2.024	-2.21558
2.0245	-1.51062
2.025	1.61133
2.0255	0.60425
2.026	-0.80566
2.0265	1.40991
2.027	-1.51062
2.0275	-2.5177
2.028	-0.60425
2.0285	-3.22266
2.029	-3.7262
2.0295	-11.17859
2.03	-16.81824
2.0305	-27.49329
2.031	-29.91028
2.0315	-25.68054
2.032	-17.92603
2.0325	-7.75452
2.033	-5.84106
2.0335	-1.91345
2.034	-0.80566
2.0345	0.70496
2.035	0.50354
2.0355	-1.71204
2.036	0.70496
2.0365	3.22266
2.037	14.70337
2.0375	11.98425
2.038	16.11328
2.0385	18.42957
2.039	17.42249
2.0395	19.33594
2.04	20.84656
2.0405	21.85364
2.041	22.55859
2.0415	18.53027
2.042	15.40833
2.0425	15.00549
2.043	9.97009
2.0435	7.65381
2.044	4.22974
2.0445	1.61133
2.045	4.02832
2.0455	-4.53186
2.046	-2.81982
2.0465	4.12903
2.047	7.35168
2.0475	6.14319
2.048	4.22974
2.0485	12.08496
2.049	11.58142
2.0495	5.74036
2.05	5.63965
2.0505	5.84106
2.051	2.71912
2.0515	5.43823
2.052	6.64673
2.0525	6.94885
2.053	6.64673
2.0535	3.62549
2.054	11.78284
2.0545	16.61682
2.055	19.53735
2.0555	14.30054
2.056	13.09204
2.0565	-1.51062
2.057	-15.91187
2.0575	-20.74585
2.058	-14.50195
2.0585	-11.48071
2.059	-9.56726
2.0595	-4.43115
2.06	14.50195
2.0605	19.73877
2.061	23.56567
2.0615	27.79541
2.062	30.11169
2.0625	33.03223
2.063	31.01807
2.0635	26.08337
2.064	31.32019
2.0645	32.22656
2.065	38.26904
2.0655	30.2124
2.066	23.96851
2.0665	20.74585
2.067	13.59558
2.0675	17.72461
2.068	11.68213
2.0685	15.40833
2.069	11.48071
2.0695	12.78992
2.07	13.59558
2.0705	11.2793
2.071	3.52478
2.0715	-6.94885
2.072	-21.14868
2.0725	-31.32019
2.073	-33.33435
2.0735	-36.95984
2.074	-32.42798
2.0745	-31.72302
2.075	-19.94019
2.0755	-5.53894
2.076	-3.02124
2.0765	5.94177
2.077	4.53186
2.0775	15.81116
2.078	17.12036
2.0785	22.15576
2.079	26.78833
2.0795	27.6947
2.08	25.68054
2.0805	27.99683
2.081	19.83948
2.0815	22.05505
2.082	21.04797
2.0825	14.50195
2.083	9.36584
2.0835	14.50195
2.084	25.47913
2.0845	22.76001
2.085	19.63806
2.0855	16.61682
2.086	15.30762
2.0865	20.44373
2.087	12.5885
2.0875	11.48071
2.088	9.06372
2.0885	15.40833
2.089	11.2793
2.0895	4.53186
2.09	-0.70496
2.0905	-13.09204
2.091	-15.1062
2.0915	-15.20691
2.092	-13.797
2.0925	-8.7616
2.093	-7.65381
2.0935	-5.74036
2.094	3.42407
2.0945	11.17859
2.095	11.48071
2.0955	11.88354
2.096	13.39417
2.0965	6.04248
2.097	7.75452
2.0975	-2.11487
2.098	0.10071
2.0985	-10.47363
2.099	-16.21399
2.0995	-21.3501
2.1	-31.01807
2.1005	-29.30603
2.101	-19.83948
2.1015	-20.54443
2.102	-16.11328
2.1025	-16.81824
2.103	-15.00549
2.1035	-17.12036
2.104	-22.55859
2.1045	-14.09912
2.105	-12.5885
2.1055	-7.25098
2.106	-2.41699
2.1065	9.16443
2.107	15.50903
2.1075	11.98425
2.108	25.37842
2.1085	25.47913
2.109	30.2124
2.1095	33.03223
2.11	27.99683
2.1105	26.68762
2.111	32.62939
2.1115	39.88037
2.112	32.52869
2.1125	24.57275
2.113	18.63098
2.1135	15.1062
2.114	8.56018
2.1145	-0.80566
2.115	-5.53894
2.1155	-7.65381
2.116	-8.25806
2.1165	-9.56726
2.117	-2.5177
2.1175	-7.04956
2.118	-11.88354
2.1185	-13.09204
2.119	-14.19983
2.1195	-6.2439
2.12	-9.86938
2.1205	-3.52478
2.121	5.23682
2.1215	3.42407
2.122	5.74036
2.1225	8.15735
2.123	3.42407
2.1235	9.97009
2.124	14.19983
2.1245	19.53735
2.125	23.26355
2.1255	19.43665
2.126	9.16443
2.1265	8.66089
2.127	7.25098
2.1275	4.12903
2.128	7.35168
2.1285	4.73328
2.129	7.45239
2.1295	17.01965
2.13	21.14868
2.1305	20.54443
2.131	20.04089
2.1315	21.65222
2.132	21.95435
2.1325	21.85364
2.133	21.55151
2.1335	25.27771
2.134	31.72302
2.1345	28.39966
2.135	22.35718
2.1355	18.42957
2.136	13.39417
2.1365	5.63965
2.137	-4.02832
2.1375	-5.84106
2.138	-11.58142
2.1385	-12.68921
2.139	-7.95593
2.1395	-8.56018
2.14	-9.06372
2.1405	-20.1416
2.141	-27.49329
2.1415	-29.91028
2.142	-26.98975
2.1425	-21.65222
2.143	-19.33594
2.1435	-19.13452
2.144	-14.40125
2.1445	-9.76868
2.145	-21.45081
2.1455	-30.91736
2.146	-45.01648
2.1465	-35.34851
2.147	-46.32568
2.1475	-55.2887
2.148	-42.09595
2.1485	-25.37842
2.149	-9.66797
2.1495	-3.8269
2.15	2.81982
2.1505	18.63098
2.151	25.07629
2.1515	36.75842
2.152	36.55701
2.1525	42.59949
2.153	42.09595
2.1535	50.55542
2.154	51.86462
2.1545	53.97949
2.155	58.51135
2.1555	53.67737
2.156	50.05188
2.1565	52.36816
2.157	56.69861
2.1575	53.77808
2.158	49.34692
2.1585	40.88745
2.159	34.44214
2.1595	32.7301
2.16	24.97559
2.1605	26.18408
2.161	23.36426
2.1615	14.80408
2.162	9.86938
2.1625	2.01416
2.163	-5.53894
2.1635	-4.53186
2.164	-5.13611
2.1645	-5.94177
2.165	-2.5177
2.1655	2.21558
2.166	3.42407
2.1665	4.43115
2.167	7.25098
2.1675	1.40991
2.168	7.5531
2.1685	4.33044
2.169	6.14319
2.1695	5.0354
2.17	-2.21558
2.1705	-1.3092
2.171	-12.89062
2.1715	-9.46655
2.172	-11.78284
2.1725	-11.17859
2.173	-10.87646
2.1735	-3.7262
2.174	1.51062
2.1745	9.36584
2.175	8.45947
2.1755	13.19275
2.176	19.43665
2.1765	4.93469
2.177	-7.15027
2.1775	-13.29346
2.178	-18.42957
2.1785	-18.02673
2.179	-16.3147
2.1795	-17.52319
2.18	-15.1062
2.1805	-8.8623
2.181	-2.92053
2.1815	5.43823
2.182	3.8269
2.1825	3.7262
2.183	6.14319
2.1835	4.53186
2.184	-1.3092
2.1845	3.22266
2.185	-0.50354
2.1855	2.81982
2.186	1.61133
2.1865	0.40283
2.187	4.02832
2.1875	6.2439
2.188	10.67505
2.1885	13.09204
2.189	15.60974
2.1895	20.34302
2.19	24.47205
2.1905	27.49329
2.191	20.64514
2.1915	9.97009
2.192	5.84106
2.1925	-18.22815
2.193	-43.00232
2.1935	-49.85046
2.194	-54.78516
2.1945	-49.34692
2.195	-41.18958
2.1955	-23.76709
2.196	-12.78992
2.1965	6.84814
2.197	22.55859
2.1975	29.50745
2.198	40.68604
2.1985	46.82922
2.199	48.23914
2.1995	50.05188
2.2	43.40515
2.2005	34.54285
2.201	30.2124
2.2015	28.39966
2.202	19.43665
2.2025	14.40125
2.203	12.68921
2.2035	14.09912
2.204	15.81116
2.2045	17.22107
2.205	14.90479
2.2055	9.56726
2.206	9.06372
2.2065	2.92053
2.207	-3.7262
2.2075	-10.97717
2.208	-12.28638
2.2085	-12.89062
2.209	-0.90637
2.2095	0.80566
2.21	6.44531
2.2105	8.45947
2.211	4.93469
2.2115	3.32336
2.212	7.95593
2.2125	15.91187
2.213	17.52319
2.2135	17.12036
2.214	15.1062
2.2145	18.53027
2.215	8.15735
2.2155	7.15027
2.216	6.54602
2.2165	6.14319
2.217	4.63257
2.2175	1.00708
2.218	-0.40283
2.2185	-4.33044
2.219	-7.5531
2.2195	-22.76001
2.22	-24.47205
2.2205	-19.23523
2.221	-18.63098
2.2215	-12.68921
2.222	-15.50903
2.2225	-11.88354
2.223	-7.65381
2.2235	-0.50354
2.224	2.71912
2.2245	12.08496
2.225	7.75452
2.2255	5.53894
2.226	4.83398
2.2265	13.29346
2.227	9.46655
2.2275	8.96301
2.228	14.50195
2.2285	17.22107
2.229	20.74585
2.2295	15.40833
2.23	10.37292
2.2305	13.29346
2.231	14.60266
2.2315	19.33594
2.232	22.15576
2.2325	29.40674
2.233	28.9032
2.2335	30.31311
2.234	29.91028
2.2345	9.06372
2.235	1.81274
2.2355	5.23682
2.236	-6.64673
2.2365	-14.19983
2.237	-15.40833
2.2375	-9.97009
2.238	-15.60974
2.2385	-14.80408
2.239	-19.13452
2.2395	-9.46655
2.24	-10.67505
2.2405	-1.91345
2.241	0.30212
2.2415	2.71912
2.242	4.22974
2.2425	11.68213
2.243	13.19275
2.2435	12.48779
2.244	15.20691
2.2445	10.57434
2.245	14.50195
2.2455	16.3147
2.246	16.91895
2.2465	9.36584
2.247	12.48779
2.2475	16.81824
2.248	16.41541
2.2485	8.8623
2.249	8.35876
2.2495	10.67505
2.25	7.75452
2.2505	6.14319
2.251	8.7616
2.2515	4.12903
2.252	6.04248
2.2525	5.13611
2.253	2.61841
2.2535	5.84106
2.254	-0.40283
2.2545	-4.93469
2.255	-4.73328
2.2555	-6.04248
2.256	-4.02832
2.2565	0.30212
2.257	4.02832
2.2575	9.46655
2.258	13.19275
2.2585	10.47363
2.259	10.27222
2.2595	4.12903
2.26	5.13611
2.2605	1.81274
2.261	3.42407
2.2615	0
2.262	-2.92053
2.2625	-5.0354
2.263	-5.13611
2.2635	-11.78284
2.264	-9.26514
2.2645	-16.61682
2.265	-15.81116
2.2655	-12.89062
2.266	-6.04248
2.2665	-5.63965
2.267	-1.61133
2.2675	1.71204
2.268	3.22266
2.2685	3.7262
2.269	1.71204
2.2695	5.74036
2.27	9.56726
2.2705	19.03381
2.271	18.02673
2.2715	19.43665
2.272	18.73169
2.2725	20.84656
2.273	9.86938
2.2735	6.54602
2.274	0.80566
2.2745	-6.14319
2.275	-11.17859
2.2755	-20.1416
2.276	-16.01257
2.2765	-19.33594
2.277	-12.08496
2.2775	-10.17151
2.278	-5.43823
2.2785	-3.42407
2.279	-2.92053
2.2795	4.22974
2.28	13.49487
2.2805	16.51611
2.281	23.06213
2.2815	26.78833
2.282	29.40674
2.2825	34.44214
2.283	33.43506
2.2835	27.6947
2.284	24.97559
2.2845	19.94019
2.285	15.40833
2.2855	22.96143
2.286	26.88904
2.2865	22.15576
2.287	26.98975
2.2875	23.16284
2.288	18.93311
2.2885	15.71045
2.289	16.3147
2.2895	6.94885
2.29	8.56018
2.2905	9.66797
2.291	9.26514
2.2915	7.65381
2.292	5.43823
2.2925	8.25806
2.293	7.5531
2.2935	-7.85522
2.294	-20.74585
2.2945	-24.16992
2.295	-29.70886
2.2955	-36.35559
2.296	-33.83789
2.2965	-29.50745
2.297	-18.42957
2.2975	-13.89771
2.298	-16.41541
2.2985	-13.39417
2.299	-2.92053
2.2995	0.80566
2.3	14.09912
2.3005	14.90479
2.301	6.54602
2.3015	2.81982
2.302	-5.74036
2.3025	-8.35876
2.303	-8.96301
2.3035	-10.77576
2.304	-21.85364
2.3045	-30.81665
2.305	-30.81665
2.3055	-30.2124
2.306	-17.42249
2.3065	-6.3446
2.307	10.97717
2.3075	19.73877
2.308	25.88196
2.3085	22.35718
2.309	23.06213
2.3095	34.74426
2.31	32.32727
2.3105	29.50745
2.311	32.32727
2.3115	33.13293
2.312	30.61523
2.3125	34.14001
2.313	22.05505
2.3135	15.91187
2.314	14.19983
2.3145	18.53027
2.315	19.63806
2.3155	15.71045
2.316	9.66797
2.3165	12.18567
2.317	11.98425
2.3175	16.71753
2.318	8.35876
2.3185	5.23682
2.319	-5.74036
2.3195	-6.3446
2.32	-7.65381
2.3205	-7.15027
2.321	-10.47363
2.3215	-1.51062
2.322	-3.92761
2.3225	0.70496
2.323	-2.11487
2.3235	0.70496
2.324	-1.61133
2.3245	0
2.325	3.52478
2.3255	2.81982
2.326	0.50354
2.3265	-10.37292
2.327	-12.5885
2.3275	-19.23523
2.328	-15.00549
2.3285	-12.28638
2.329	-1.10779
2.3295	3.22266
2.33	6.04248
2.3305	9.26514
2.331	11.58142
2.3315	13.29346
2.332	16.3147
2.3325	17.92603
2.333	12.5885
2.3335	16.61682
2.334	22.45789
2.3345	19.73877
2.335	26.58691
2.3355	28.29895
2.336	26.58691
2.3365	20.64514
2.337	17.42249
2.3375	10.67505
2.338	14.19983
2.3385	22.45789
2.339	29.70886
2.3395	30.31311
2.34	22.6593
2.3405	21.65222
2.341	24.97559
2.3415	11.2793
2.342	6.54602
2.3425	-1.40991
2.343	-7.15027
2.3435	-3.92761
2.344	-6.54602
2.3445	-6.84814
2.345	-1.81274
2.3455	4.12903
2.346	8.7616
2.3465	5.33752
2.347	-2.5177
2.3475	-5.74036
2.348	-6.74744
2.3485	-7.95593
2.349	-8.45947
2.3495	-6.2439
2.35	-8.45947
2.3505	-7.35168
2.351	-8.56018
2.3515	-2.11487
2.352	-4.22974
2.3525	-2.71912
2.353	-3.92761
2.3535	2.21558
2.354	2.71912
2.3545	-2.71912
2.355	-1.2085
2.3555	-7.04956
2.356	-14.90479
2.3565	-17.52319
2.357	-19.94019
2.3575	-19.13452
2.358	-8.7616
2.3585	-5.94177
2.359	-8.45947
2.3595	-3.02124
2.36	-2.21558
2.3605	2.5177
2.361	6.84814
2.3615	3.52478
2.362	14.70337
2.3625	9.46655
2.363	9.56726
2.3635	18.42957
2.364	16.11328
2.3645	20.04089
2.365	22.35718
2.3655	12.68921
2.366	9.86938
2.3665	8.8623
2.367	6.54602
2.3675	7.5531
2.368	4.73328
2.3685	4.63257
2.369	5.84106
2.3695	9.76868
2.37	19.23523
2.3705	14.19983
2.371	10.0708
2.3715	8.66089
2.372	-3.52478
2.3725	-12.78992
2.373	-17.42249
2.3735	-11.2793
2.374	-3.12195
2.3745	-0.90637
2.375	-1.40991
2.3755	-6.04248
2.376	4.83398
2.3765	2.41699
2.377	2.71912
2.3775	6.54602
2.378	6.84814
2.3785	2.21558
2.379	8.7616
2.3795	12.68921
2.38	17.92603
2.3805	21.24939
2.381	27.6947
2.3815	28.39966
2.382	35.04639
2.3825	24.67346
2.383	19.73877
2.3835	17.72461
2.384	13.09204
2.3845	15.60974
2.385	10.27222
2.3855	8.25806
2.386	4.43115
2.3865	7.5531
2.387	3.22266
2.3875	5.0354
2.388	-0.60425
2.3885	-9.66797
2.389	-19.13452
2.3895	-15.91187
2.39	-15.40833
2.3905	-8.7616
2.391	0.70496
2.3915	-2.71912
2.392	4.93469
2.3925	7.5531
2.393	12.18567
2.3935	11.98425
2.394	23.36426
2.3945	27.09045
2.395	28.29895
2.3955	31.62231
2.396	32.83081
2.3965	34.74426
2.397	36.15417
2.3975	31.11877
2.398	28.50037
2.3985	21.85364
2.399	12.18567
2.3995	15.00549
2.4	14.60266
2.4005	8.66089
2.401	15.91187
2.4015	11.88354
2.402	15.91187
2.4025	18.63098
2.403	13.59558
2.4035	-2.21558
2.404	0.60425
2.4045	0.60425
2.405	4.43115
2.4055	5.74036
2.406	8.35876
2.4065	11.78284
2.407	8.25806
2.4075	4.93469
2.408	6.44531
2.4085	5.33752
2.409	2.31628
2.4095	1.71204
2.41	-2.21558
2.4105	-6.04248
2.411	-9.46655
2.4115	-1.61133
2.412	-8.7616
2.4125	-12.89062
2.413	-10.37292
2.4135	-6.54602
2.414	-0.40283
2.4145	1.10779
2.415	1.10779
2.4155	1.2085
2.416	2.92053
2.4165	6.2439
2.417	2.92053
2.4175	5.43823
2.418	1.91345
2.4185	-6.04248
2.419	-15.81116
2.4195	-14.50195
2.42	-12.28638
2.4205	-15.20691
2.421	-11.2793
2.4215	-8.15735
2.422	-5.63965
2.4225	-9.46655
2.423	-7.5531
2.4235	-3.8269
2.424	-8.25806
2.4245	-8.45947
2.425	-6.04248
2.4255	-11.48071
2.426	-1.61133
2.4265	-0.20142
2.427	4.12903
2.4275	10.27222
2.428	20.1416
2.4285	22.55859
2.429	29.10461
2.4295	29.80957
2.43	31.11877
2.4305	33.43506
2.431	33.13293
2.4315	40.48462
2.432	40.38391
2.4325	28.60107
2.433	22.76001
2.4335	25.177
2.434	26.3855
2.4345	27.19116
2.435	24.97559
2.4355	14.19983
2.436	14.60266
2.4365	8.56018
2.437	13.797
2.4375	13.39417
2.438	18.32886
2.4385	13.99841
2.439	14.80408
2.4395	15.81116
2.44	10.47363
2.4405	9.36584
2.441	18.12744
2.4415	14.90479
2.442	7.15027
2.4425	3.92761
2.443	0.50354
2.4435	-9.97009
2.444	-18.53027
2.4445	-21.24939
2.445	-27.89612
2.4455	-33.63647
2.446	-36.05347
2.4465	-36.25488
2.447	-29.50745
2.4475	-20.04089
2.448	-13.19275
2.4485	-3.62549
2.449	3.22266
2.4495	7.15027
2.45	8.15735
2.4505	3.52478
2.451	0.10071
2.4515	-2.41699
2.452	-4.53186
2.4525	-1.51062
2.453	-12.18567
2.4535	-29.70886
2.454	-30.81665
2.4545	-30.41382
2.455	-27.79541
2.4555	-17.72461
2.456	-9.66797
2.4565	1.51062
2.457	5.74036
2.4575	14.19983
2.458	24.77417
2.4585	30.2124
2.459	38.974
2.4595	45.72144
2.46	44.21082
2.4605	47.03064
2.461	49.74976
2.4615	45.01648
2.462	47.8363
2.4625	51.96533
2.463	47.33276
2.4635	44.71436
2.464	37.26196
2.4645	24.57275
2.465	18.42957
2.4655	3.62549
2.466	2.61841
2.4665	-2.61841
2.467	-5.63965
2.4675	-10.67505
2.468	-8.25806
2.4685	2.31628
2.469	10.47363
2.4695	9.86938
2.47	11.38
2.4705	12.89062
2.471	-6.2439
2.4715	-10.97717
2.472	-13.49487
2.4725	-7.45239
2.473	-1.40991
2.4735	-2.21558
2.474	-11.38
2.4745	-6.84814
2.475	-9.97009
2.4755	-3.02124
2.476	0.50354
2.4765	-3.12195
2.477	-0.20142
2.4775	-2.5177
2.478	-2.5177
2.4785	-11.68213
2.479	-9.97009
2.4795	-12.08496
2.48	-10.57434
2.4805	-4.02832
2.481	-0.50354
2.4815	8.45947
2.482	6.54602
2.4825	8.8623
2.483	8.25806
2.4835	15.20691
2.484	19.53735
2.4845	10.0708
2.485	9.46655
2.4855	13.19275
2.486	8.96301
2.4865	14.19983
2.487	13.49487
2.4875	15.40833
2.488	13.797
2.4885	12.78992
2.489	17.22107
2.4895	16.91895
2.49	18.02673
2.4905	20.94727
2.491	20.84656
2.4915	29.50745
2.492	32.42798
2.4925	35.44922
2.493	31.92444
2.4935	24.57275
2.494	-5.43823
2.4945	-16.11328
2.495	-7.5531
2.4955	-3.52478
2.496	2.11487
2.4965	1.10779
2.497	8.25806
2.4975	14.70337
2.498	22.45789
2.4985	19.83948
2.499	20.94727
2.4995	28.60107
2.5	27.89612
2.5005	30.31311
2.501	30.11169
2.5015	24.87488
2.502	24.47205
2.5025	23.76709
2.503	22.86072
2.5035	19.63806
2.504	16.81824
2.5045	18.32886
2.505	18.42957
2.5055	8.8623
2.506	0.30212
2.5065	1.61133
2.507	-0.10071
2.5075	-10.47363
2.508	-8.96301
2.5085	-29.40674
2.509	-41.79382
2.5095	-48.13843
2.51	-38.67188
2.5105	-31.72302
2.511	-20.24231
2.5115	-9.86938
2.512	1.2085
2.5125	7.04956
2.513	15.40833
2.5135	18.93311
2.514	32.22656
2.5145	34.64355
2.515	36.85913
2.5155	27.09045
2.516	15.40833
2.5165	10.57434
2.517	7.95593
2.5175	15.91187
2.518	14.70337
2.5185	15.71045
2.519	20.54443
2.5195	19.94019
2.52	22.76001
2.5205	16.11328
2.521	14.70337
2.5215	23.06213
2.522	20.94727
2.5225	16.61682
2.523	5.13611
2.5235	1.00708
2.524	3.42407
2.5245	0.30212
2.525	4.33044
2.5255	-1.00708
2.526	-1.71204
2.5265	-6.04248
2.527	-6.74744
2.5275	-7.25098
2.528	-2.81982
2.5285	-11.58142
2.529	-15.60974
2.5295	-12.78992
2.53	-8.8623
2.5305	8.66089
2.531	9.66797
2.5315	13.69629
2.532	16.91895
2.5325	29.10461
2.533	28.19824
2.5335	18.73169
2.534	8.25806
2.5345	2.01416
2.535	-4.33044
2.5355	-6.44531
2.536	-2.5177
2.5365	-5.74036
2.537	-2.71912
2.5375	3.52478
2.538	2.71912
2.5385	-3.8269
2.539	-4.73328
2.5395	-2.31628
2.54	-5.43823
2.5405	-2.5177
2.541	-2.92053
2.5415	-1.3092
2.542	3.02124
2.5425	6.3446
2.543	0.30212
2.5435	2.61841
2.544	3.7262
2.5445	5.94177
2.545	-0.60425
2.5455	-4.43115
2.546	-3.7262
2.5465	-2.71912
2.547	4.12903
2.5475	10.67505
2.548	8.56018
2.5485	7.15027
2.549	2.71912
2.5495	11.07788
2.55	13.49487
2.5505	11.88354
2.551	9.06372
2.5515	8.35876
2.552	-2.11487
2.5525	-23.8678
2.553	-37.36267
2.5535	-51.46179
2.554	-43.60657
2.5545	-34.44214
2.555	-26.58691
2.5555	-16.11328
2.556	-6.3446
2.5565	6.54602
2.557	13.797
2.5575	25.37842
2.558	17.42249
2.5585	10.87646
2.559	-0.80566
2.5595	-1.81274
2.56	7.15027
2.5605	12.38708
2.561	6.3446
2.5615	15.91187
2.562	17.12036
2.5625	17.01965
2.563	18.12744
2.5635	22.96143
2.564	37.56409
2.5645	46.62781
2.565	44.21082
2.5655	42.90161
2.566	43.20374
2.5665	37.86621
2.567	38.26904
2.5675	44.51294
2.568	41.69312
2.5685	37.56409
2.569	23.96851
2.5695	-0.60425
2.57	-16.91895
2.5705	-20.24231
2.571	-18.12744
2.5715	-21.75293
2.572	-14.09912
2.5725	1.2085
2.573	19.23523
2.5735	31.52161
2.574	38.36975
2.5745	37.56409
2.575	32.12585
2.5755	22.6593
2.576	1.61133
2.5765	3.32336
2.577	4.93469
2.5775	2.71912
2.578	7.85522
2.5785	3.7262
2.579	10.77576
2.5795	8.25806
2.58	18.32886
2.5805	15.81116
2.581	19.94019
2.5815	21.24939
2.582	17.6239
2.5825	21.55151
2.583	18.22815
2.5835	10.17151
2.584	9.16443
2.5845	4.43115
2.585	-8.66089
2.5855	-14.19983
2.586	-9.06372
2.5865	-12.08496
2.587	-3.02124
2.5875	-1.00708
2.588	5.43823
2.5885	9.16443
2.589	15.20691
2.5895	18.73169
2.59	13.89771
2.5905	16.3147
2.591	21.24939
2.5915	25.37842
2.592	18.02673
2.5925	10.47363
2.593	2.11487
2.5935	-8.45947
2.594	-10.27222
2.5945	-11.38
2.595	-23.96851
2.5955	-34.94568
2.596	-41.99524
2.5965	-35.75134
2.597	-27.19116
2.5975	-17.42249
2.598	-8.56018
2.5985	-2.92053
2.599	4.83398
2.5995	2.81982
2.6	5.0354
2.6005	9.66797
2.601	16.41541
2.6015	16.41541
2.602	18.53027
2.6025	15.71045
2.603	21.45081
2.6035	21.85364
2.604	16.61682
2.6045	15.60974
2.605	20.94727
2.6055	19.63806
2.606	18.93311
2.6065	21.65222
2.607	22.55859
2.6075	18.42957
2.608	21.65222
2.6085	19.33594
2.609	20.74585
2.6095	18.8324
2.61	10.87646
2.6105	19.83948
2.611	22.35718
2.6115	21.04797
2.612	11.68213
2.6125	10.97717
2.613	18.73169
2.6135	15.1062
2.614	17.52319
2.6145	16.61682
2.615	14.90479
2.6155	13.09204
2.616	13.49487
2.6165	8.25806
2.617	8.35876
2.6175	8.66089
2.618	2.81982
2.6185	6.14319
2.619	-0.60425
2.6195	-3.52478
2.62	-16.91895
2.6205	-15.00549
2.621	-18.42957
2.6215	-15.1062
2.622	-8.8623
2.6225	-1.71204
2.623	1.61133
2.6235	-1.10779
2.624	5.0354
2.6245	11.2793
2.625	7.85522
2.6255	4.43115
2.626	3.92761
2.6265	-4.33044
2.627	-10.0708
2.6275	-16.71753
2.628	-19.43665
2.6285	-23.36426
2.629	-19.83948
2.6295	-13.99841
2.63	-15.20691
2.6305	-7.5531
2.631	-1.61133
2.6315	-4.43115
2.632	-2.92053
2.6325	-1.3092
2.633	1.51062
2.6335	0.10071
2.634	3.8269
2.6345	8.66089
2.635	13.39417
2.6355	10.77576
2.636	18.02673
2.6365	19.83948
2.637	14.80408
2.6375	19.03381
2.638	24.37134
2.6385	22.15576
2.639	19.13452
2.6395	20.54443
2.64	10.27222
2.6405	9.16443
2.641	13.19275
2.6415	12.89062
2.642	13.69629
2.6425	7.85522
2.643	11.48071
2.6435	3.32336
2.644	-4.02832
2.6445	-18.02673
2.645	-20.34302
2.6455	-30.41382
2.646	-34.24072
2.6465	-32.83081
2.647	-34.34143
2.6475	-28.29895
2.648	-18.42957
2.6485	-19.03381
2.649	-14.19983
2.6495	-10.17151
2.65	-29.91028
2.6505	-42.7002
2.651	-44.81506
2.6515	-33.63647
2.652	-15.71045
2.6525	-0.60425
2.653	11.58142
2.6535	27.09045
2.654	34.84497
2.6545	31.82373
2.655	41.4917
2.6555	44.71436
2.656	54.68445
2.6565	50.45471
2.657	48.03772
2.6575	54.48303
2.658	52.8717
2.6585	50.75684
2.659	47.03064
2.6595	49.24622
2.66	41.79382
2.6605	35.54993
2.661	31.52161
2.6615	26.88904
2.662	23.06213
2.6625	16.81824
2.663	16.11328
2.6635	13.19275
2.664	5.53894
2.6645	0.30212
2.665	5.63965
2.6655	-2.71912
2.666	-3.32336
2.6665	-1.81274
2.667	5.53894
2.6675	3.52478
2.668	3.8269
2.6685	2.31628
2.669	3.22266
2.6695	6.3446
2.67	6.74744
2.6705	3.42407
2.671	3.52478
2.6715	5.53894
2.672	3.52478
2.6725	-6.74744
2.673	-8.8623
2.6735	-14.70337
2.674	-18.53027
2.6745	-21.45081
2.675	-34.03931
2.6755	-36.95984
2.676	-32.7301
2.6765	-38.06763
2.677	-29.50745
2.6775	-20.44373
2.678	-17.72461
2.6785	-11.88354
2.679	-6.04248
2.6795	3.02124
2.68	13.49487
2.6805	12.68921
2.681	14.30054
2.6815	17.01965
2.682	28.70178
2.6825	25.78125
2.683	31.72302
2.6835	27.39258
2.684	12.99133
2.6845	3.02124
2.685	0.80566
2.6855	9.16443
2.686	0
2.6865	4.83398
2.687	-12.28638
2.6875	-17.72461
2.688	-6.14319
2.6885	-8.56018
2.689	1.81274
2.6895	0.50354
2.69	-6.04248
2.6905	-2.21558
2.691	-8.05664
2.6915	-16.41541
2.692	-12.48779
2.6925	-18.22815
2.693	-21.24939
2.6935	-12.28638
2.694	-5.74036
2.6945	6.44531
2.695	10.47363
2.6955	21.3501
2.696	23.96851
2.6965	29.40674
2.697	37.7655
2.6975	35.2478
2.698	35.65063
2.6985	30.01099
2.699	30.41382
2.6995	34.84497
2.7	38.67188
2.7005	44.0094
2.701	47.7356
2.7015	41.18958
2.702	37.26196
2.7025	36.65771
2.703	27.09045
2.7035	28.19824
2.704	25.27771
2.7045	17.52319
2.705	27.29187
2.7055	23.26355
2.706	26.48621
2.7065	30.41382
2.707	18.32886
2.7075	18.32886
2.708	16.61682
2.7085	8.8623
2.709	11.2793
2.7095	11.58142
2.71	12.08496
2.7105	10.87646
2.711	12.48779
2.7115	6.04248
2.712	-1.00708
2.7125	-4.33044
2.713	-6.14319
2.7135	-6.04248
2.714	-7.04956
2.7145	-6.2439
2.715	-8.66089
2.7155	-16.3147
2.716	-35.14709
2.7165	-52.771
2.717	-67.37366
2.7175	-71.7041
2.718	-69.99207
2.7185	-71.09985
2.719	-58.51135
2.7195	-38.77258
2.72	-29.60815
2.7205	-11.98425
2.721	2.21558
2.7215	11.58142
2.722	14.70337
2.7225	13.29346
2.723	17.82532
2.7235	14.90479
2.724	23.26355
2.7245	27.49329
2.725	24.67346
2.7255	26.08337
2.726	25.88196
2.7265	22.45789
2.727	15.00549
2.7275	8.25806
2.728	11.07788
2.7285	10.87646
2.729	-11.58142
2.7295	-24.67346
2.73	-26.28479
2.7305	-16.01257
2.731	-7.75452
2.7315	-0.60425
2.732	11.58142
2.7325	12.68921
2.733	22.6593
2.7335	19.03381
2.734	26.68762
2.7345	29.70886
2.735	30.41382
2.7355	25.07629
2.736	23.06213
2.7365	26.78833
2.737	25.68054
2.7375	29.70886
2.738	24.97559
2.7385	30.01099
2.739	27.19116
2.7395	23.16284
2.74	28.9032
2.7405	23.96851
2.741	21.04797
2.7415	28.80249
2.742	21.85364
2.7425	-1.81274
2.743	-18.63098
2.7435	-24.16992
2.744	-30.81665
2.7445	-23.16284
2.745	-13.59558
2.7455	-4.53186
2.746	9.06372
2.7465	18.12744
2.747	21.55151
2.7475	25.78125
2.748	27.39258
2.7485	30.61523
2.749	14.50195
2.7495	0.80566
2.75	3.12195
2.7505	1.71204
2.751	0.50354
2.7515	14.60266
2.752	22.15576
2.7525	18.8324
2.753	22.55859
2.7535	17.52319
2.754	-5.84106
2.7545	-24.57275
2.755	-26.78833
2.7555	-23.26355
2.756	-10.47363
2.7565	-11.88354
2.757	-4.53186
2.7575	-0.70496
2.758	2.31628
2.7585	-3.92761
2.759	-5.23682
2.7595	1.81274
2.76	8.45947
2.7605	14.09912
2.761	17.42249
2.7615	28.70178
2.762	29.40674
2.7625	33.53577
2.763	33.43506
2.7635	34.84497
2.764	38.26904
2.7645	39.88037
2.765	33.33435
2.7655	32.22656
2.766	29.30603
2.7665	3.62549
2.767	-5.23682
2.7675	-14.50195
2.768	-13.69629
2.7685	-22.6593
2.769	-18.32886
2.7695	-14.09912
2.77	-0.60425
2.7705	4.73328
2.771	10.57434
2.7715	17.6239
2.772	22.76001
2.7725	22.55859
2.773	22.76001
2.7735	36.95984
2.774	38.06763
2.7745	23.56567
2.775	16.21399
2.7755	5.63965
2.776	2.5177
2.7765	7.35168
2.777	8.56018
2.7775	7.5531
2.778	10.47363
2.7785	15.50903
2.779	14.09912
2.7795	1.3092
2.78	-8.8623
2.7805	-5.43823
2.781	-3.42407
2.7815	-6.74744
2.782	-10.97717
2.7825	-15.91187
2.783	-17.42249
2.7835	-22.6593
2.784	-20.24231
2.7845	-14.40125
2.785	-14.80408
2.7855	-3.12195
2.786	3.32336
2.7865	7.75452
2.787	11.48071
2.7875	9.56726
2.788	11.07788
2.7885	13.29346
2.789	9.66797
2.7895	10.17151
2.79	7.75452
2.7905	2.71912
2.791	-7.65381
2.7915	0.70496
2.792	8.15735
2.7925	6.44531
2.793	1.10779
2.7935	-3.42407
2.794	0.10071
2.7945	-10.87646
2.795	-11.88354
2.7955	-17.32178
2.796	-18.93311
2.7965	-17.32178
2.797	-13.09204
2.7975	-8.96301
2.798	-0.90637
2.7985	1.10779
2.799	11.68213
2.7995	13.19275
2.8	16.41541
2.8005	22.96143
2.801	18.32886
2.8015	13.89771
2.802	11.98425
2.8025	16.21399
2.803	15.40833
2.8035	23.36426
2.804	12.28638
2.8045	3.02124
2.805	-1.81274
2.8055	6.04248
2.806	0.10071
2.8065	-0.40283
2.807	-10.77576
2.8075	-16.51611
2.808	-16.61682
2.8085	-7.15027
2.809	-1.91345
2.8095	5.74036
2.81	8.56018
2.8105	9.66797
2.811	11.58142
2.8115	13.69629
2.812	12.48779
2.8125	23.26355
2.813	28.39966
2.8135	29.80957
2.814	30.01099
2.8145	37.66479
2.815	40.48462
2.8155	47.8363
2.816	49.24622
2.8165	40.1825
2.817	31.11877
2.8175	13.59558
2.818	-8.8623
2.8185	-38.87329
2.819	-50.55542
2.8195	-53.87878
2.82	-44.11011
2.8205	-45.72144
2.821	-36.4563
2.8215	-22.76001
2.822	-3.7262
2.8225	13.59558
2.823	18.22815
2.8235	20.04089
2.824	25.177
2.8245	21.95435
2.825	22.76001
2.8255	27.29187
2.826	30.2124
2.8265	26.58691
2.827	24.37134
2.8275	22.25647
2.828	24.37134
2.8285	19.03381
2.829	17.22107
2.8295	16.21399
2.83	12.78992
2.8305	12.08496
2.831	11.38
2.8315	9.26514
2.832	8.96301
2.8325	0.60425
2.833	1.40991
2.8335	3.8269
2.834	-4.22974
2.8345	-16.81824
2.835	-25.177
2.8355	-27.99683
2.836	-34.84497
2.8365	-54.78516
2.837	-61.43188
2.8375	-48.33984
2.838	-43.40515
2.8385	-43.80798
2.839	-41.08887
2.8395	-21.3501
2.84	-1.61133
2.8405	6.74744
2.841	15.20691
2.8415	26.78833
2.842	31.92444
2.8425	27.79541
2.843	31.82373
2.8435	32.32727
2.844	30.31311
2.8445	33.9386
2.845	29.80957
2.8455	28.50037
2.846	16.3147
2.8465	15.91187
2.847	16.41541
2.8475	17.22107
2.848	17.42249
2.8485	10.77576
2.849	9.76868
2.8495	2.92053
2.85	-5.84106
2.8505	-6.04248
2.851	-1.3092
2.8515	-0.40283
2.852	-0.30212
2.8525	-3.42407
2.853	-2.11487
2.8535	1.3092
2.854	16.61682
2.8545	12.89062
2.855	16.51611
2.8555	23.26355
2.856	11.88354
2.8565	9.56726
2.857	-1.3092
2.8575	3.12195
2.858	6.3446
2.8585	14.90479
2.859	21.04797
2.8595	24.27063
2.86	27.49329
2.8605	24.77417
2.861	30.71594
2.8615	26.08337
2.862	14.09912
2.8625	7.15027
2.863	3.42407
2.8635	10.17151
2.864	15.1062
2.8645	16.71753
2.865	20.34302
2.8655	25.98267
2.866	20.24231
2.8665	24.67346
2.867	26.08337
2.8675	24.47205
2.868	23.36426
2.8685	23.46497
2.869	31.72302
2.8695	32.12585
2.87	37.06055
2.8705	29.00391
2.871	26.28479
2.8715	21.3501
2.872	8.66089
2.8725	5.74036
2.873	-2.41699
2.8735	-5.23682
2.874	-0.60425
2.8745	-1.71204
2.875	-3.22266
2.8755	-0.30212
2.876	0.20142
2.8765	2.21558
2.877	3.92761
2.8775	5.13611
2.878	-3.8269
2.8785	-18.93311
2.879	-57.40356
2.8795	-73.71826
2.88	-71.30127
2.8805	-64.55383
2.881	-45.62073
2.8815	-39.17542
2.882	-24.87488
2.8825	-6.04248
2.883	8.15735
2.8835	8.56018
2.884	7.25098
2.8845	11.48071
2.885	20.44373
2.8855	23.46497
2.886	23.16284
2.8865	28.39966
2.887	35.95276
2.8875	42.8009
2.888	39.37683
2.8885	36.05347
2.889	31.72302
2.8895	29.80957
2.89	24.06921
2.8905	24.87488
2.891	22.35718
2.8915	18.73169
2.892	12.89062
2.8925	11.17859
2.893	10.67505
2.8935	15.1062
2.894	9.46655
2.8945	7.35168
2.895	3.7262
2.8955	4.22974
2.896	3.42407
2.8965	-1.51062
2.897	-5.84106
2.8975	-7.95593
2.898	-7.95593
2.8985	-10.97717
2.899	-25.88196
2.8995	-23.56567
2.9	-23.46497
2.9005	-20.1416
2.901	-21.14868
2.9015	-31.92444
2.902	-39.27612
2.9025	-26.98975
2.903	-14.60266
2.9035	1.10779
2.904	15.71045
2.9045	35.85205
2.905	49.0448
2.9055	57.70569
2.906	63.34534
2.9065	63.64746
2.907	61.73401
2.9075	61.93542
2.908	55.49011
2.9085	50.15259
2.909	38.06763
2.9095	30.81665
2.91	16.21399
2.9105	3.8269
2.911	2.01416
2.9115	-4.02832
2.912	4.33044
2.9125	-2.41699
2.913	-6.44531
2.9135	-6.74744
2.914	-8.7616
2.9145	4.33044
2.915	3.52478
2.9155	5.94177
2.916	5.53894
2.9165	4.22974
2.917	3.12195
2.9175	1.71204
2.918	4.83398
2.9185	-2.21558
2.919	1.10779
2.9195	-6.14319
2.92	-0.30212
2.9205	-8.56018
2.921	-7.95593
2.9215	-11.98425
2.922	-4.93469
2.9225	-2.5177
2.923	-11.07788
2.9235	-20.1416
2.924	-44.21082
2.9245	-58.41064
2.925	-63.14392
2.9255	-63.44604
2.926	-46.12427
2.9265	-33.03223
2.927	-15.1062
2.9275	-3.02124
2.928	10.57434
2.9285	23.96851
2.929	31.92444
2.9295	35.04639
2.93	43.60657
2.9305	46.02356
2.931	38.974
2.9315	33.13293
2.932	24.47205
2.9325	24.37134
2.933	14.90479
2.9335	23.46497
2.934	27.99683
2.9345	22.86072
2.935	23.66638
2.9355	19.63806
2.936	25.78125
2.9365	28.60107
2.937	28.80249
2.9375	18.02673
2.938	9.46655
2.9385	16.41541
2.939	13.69629
2.9395	0.70496
2.94	-9.66797
2.9405	-17.42249
2.941	-28.80249
2.9415	-20.94727
2.942	-21.55151
2.9425	-25.68054
2.943	-15.60974
2.9435	-8.45947
2.944	-3.02124
2.9445	2.21558
2.945	3.7262
2.9455	0.70496
2.946	-4.63257
2.9465	-2.31628
2.947	-2.92053
2.9475	-4.22974
2.948	6.44531
2.9485	11.78284
2.949	23.8678
2.9495	25.177
2.95	33.9386
2.9505	38.06763
2.951	42.7002
2.9515	49.74976
2.952	50.55542
2.9525	49.14551
2.953	35.34851
2.9535	38.974
2.954	26.68762
2.9545	23.96851
2.955	20.84656
2.9555	5.33752
2.956	-1.61133
2.9565	-16.71753
2.957	-18.12744
2.9575	-17.01965
2.958	-26.28479
2.9585	-26.68762
2.959	-25.37842
2.9595	-25.47913
2.96	-23.66638
2.9605	-25.98267
2.961	-19.94019
2.9615	-23.56567
2.962	-17.82532
2.9625	-16.91895
2.963	-16.81824
2.9635	-5.84106
2.964	-7.95593
2.9645	1.61133
2.965	1.61133
2.9655	5.94177
2.966	4.83398
2.9665	14.19983
2.967	22.6593
2.9675	30.51453
2.968	32.22656
2.9685	19.73877
2.969	4.12903
2.9695	-7.25098
2.97	-21.04797
2.9705	-28.29895
2.971	-24.06921
2.9715	-17.42249
2.972	-11.98425
2.9725	-0.30212
2.973	7.75452
2.9735	14.70337
2.974	21.3501
2.9745	20.04089
2.975	27.6947
2.9755	14.90479
2.976	21.24939
2.9765	23.06213
2.977	15.00549
2.9775	6.54602
2.978	5.43823
2.9785	12.08496
2.979	8.25806
2.9795	4.63257
2.98	-6.84814
2.9805	-12.68921
2.981	-28.39966
2.9815	-39.37683
2.982	-47.53418
2.9825	-54.58374
2.983	-43.40515
2.9835	-55.3894
2.984	-55.18799
2.9845	-36.95984
2.985	-20.94727
2.9855	1.2085
2.986	19.03381
2.9865	31.01807
2.987	41.4917
2.9875	61.83472
2.988	65.3595
2.9885	63.54675
2.989	63.44604
2.9895	62.33826
2.99	53.97949
2.9905	42.49878
2.991	41.08887
2.9915	31.62231
2.992	27.29187
2.9925	27.6947
2.993	36.65771
2.9935	36.95984
2.994	33.83789
2.9945	23.76709
2.995	17.32178
2.9955	16.61682
2.996	22.76001
2.9965	23.56567
2.997	16.21399
2.9975	17.01965
2.998	15.81116
2.9985	11.88354
2.999	9.66797
2.9995	3.52478
3	3.7262
3.0005	3.02124
3.001	4.22974
3.0015	1.40991
3.002	-18.22815
3.0025	-25.57983
3.003	-61.6333
3.0035	-73.41614
3.004	-77.64587
3.0045	-68.68286
3.005	-56.19507
3.0055	-37.26196
3.006	-19.53735
3.0065	-8.66089
3.007	2.92053
3.0075	-6.44531
3.008	-10.0708
3.0085	-18.93311
3.009	-19.83948
3.0095	-8.56018
3.01	-8.35876
3.0105	5.94177
3.011	23.36426
3.0115	31.01807
3.012	39.37683
3.0125	40.58533
3.013	45.11719
3.0135	49.74976
3.014	43.80798
3.0145	49.64905
3.015	57.70569
3.0155	56.5979
3.016	50.354
3.0165	43.20374
3.017	36.25488
3.0175	31.01807
3.018	25.57983
3.0185	20.1416
3.019	21.24939
3.0195	22.25647
3.02	21.45081
3.0205	22.25647
3.021	11.38
3.0215	6.04248
3.022	2.41699
3.0225	13.69629
3.023	9.56726
3.0235	-2.61841
3.024	-3.32336
3.0245	-6.84814
3.025	-5.94177
3.0255	-10.47363
3.026	-10.57434
3.0265	-1.91345
3.027	-0.10071
3.0275	6.64673
3.028	10.77576
3.0285	11.38
3.029	17.22107
3.0295	15.20691
3.03	4.53186
3.0305	0.40283
3.031	-3.42407
3.0315	-2.41699
3.032	-27.19116
3.0325	-56.19507
3.033	-80.76782
3.0335	-81.06995
3.034	-72.50977
3.0345	-68.28003
3.035	-53.37524
3.0355	-34.34143
3.036	-12.08496
3.0365	10.47363
3.037	29.80957
3.0375	40.08179
3.038	42.29736
3.0385	50.75684
3.039	50.65613
3.0395	51.5625
3.04	40.38391
3.0405	33.83789
3.041	27.89612
3.0415	13.49487
3.042	3.22266
3.0425	-10.67505
3.043	-11.48071
3.0435	-11.17859
3.044	-3.42407
3.0445	1.10779
3.045	6.84814
3.0455	11.07788
3.046	16.71753
3.0465	14.50195
3.047	6.94885
3.0475	1.51062
3.048	-1.61133
3.0485	-3.42407
3.049	0.90637
3.0495	0
3.05	-11.78284
3.0505	-20.34302
3.051	-13.19275
3.0515	-0.70496
3.052	5.0354
3.0525	11.58142
3.053	22.6593
3.0535	37.16125
3.054	34.64355
3.0545	37.46338
3.055	20.24231
3.0555	14.30054
3.056	2.01416
3.0565	-14.70337
3.057	-19.53735
3.0575	-36.35559
3.058	-57.50427
3.0585	-52.06604
3.059	-45.3186
3.0595	-49.0448
3.06	-64.65454
3.0605	-70.3949
3.061	-70.79773
3.0615	-61.73401
3.062	-52.771
3.0625	-45.82214
3.063	-30.71594
3.0635	-2.5177
3.064	23.8678
3.0645	49.0448
3.065	67.67578
3.0655	79.55933
3.066	92.14783
3.0665	93.0542
3.067	93.75916
3.0675	98.79456
3.068	101.11084
3.0685	95.87402
3.069	83.48694
3.0695	71.30127
3.07	61.23047
3.0705	56.09436
3.071	43.00232
3.0715	41.59241
3.072	43.10303
3.0725	40.08179
3.073	34.24072
3.0735	36.15417
3.074	45.82214
3.0745	43.40515
3.075	44.0094
3.0755	41.89453
3.076	32.02515
3.0765	34.24072
3.077	25.27771
3.0775	9.56726
3.078	2.5177
3.0785	-0.80566
3.079	-11.58142
3.0795	-13.69629
3.08	-12.18567
3.0805	-13.19275
3.081	-12.48779
3.0815	-11.38
3.082	-14.19983
3.0825	-16.61682
3.083	-26.68762
3.0835	-35.44922
3.084	-41.39099
3.0845	-39.57825
3.085	-40.88745
3.0855	-36.05347
3.086	-22.96143
3.0865	-17.42249
3.087	-11.88354
3.0875	-2.11487
3.088	2.11487
3.0885	12.08496
3.089	12.68921
3.0895	13.89771
3.09	-5.53894
3.0905	-18.32886
3.091	-22.05505
3.0915	-30.61523
3.092	-26.88904
3.0925	-30.51453
3.093	-27.99683
3.0935	-37.96692
3.094	-49.74976
3.0945	-46.92993
3.095	-42.8009
3.0955	-31.82373
3.096	-11.38
3.0965	-5.0354
3.097	7.25098
3.0975	13.09204
3.098	22.86072
3.0985	34.24072
3.099	35.34851
3.0995	30.2124
3.1	22.05505
3.1005	18.22815
3.101	21.65222
3.1015	28.19824
3.102	26.48621
3.1025	20.64514
3.103	16.51611
3.1035	8.15735
3.104	9.36584
3.1045	9.97009
3.105	18.8324
3.1055	22.76001
3.106	29.10461
3.1065	20.74585
3.107	19.03381
3.1075	17.82532
3.108	30.2124
3.1085	26.68762
3.109	19.03381
3.1095	14.70337
3.11	18.02673
3.1105	20.64514
3.111	28.60107
3.1115	28.39966
3.112	23.16284
3.1125	18.02673
3.113	15.30762
3.1135	13.797
3.114	6.14319
3.1145	8.56018
3.115	13.797
3.1155	1.00708
3.116	-3.8269
3.1165	-9.97009
3.117	-21.14868
3.1175	-33.23364
3.118	-41.39099
3.1185	-57.50427
3.119	-83.48694
3.1195	-93.85986
3.12	-85.29968
3.1205	-64.05029
3.121	-46.22498
3.1215	-17.01965
3.122	4.63257
3.1225	28.70178
3.123	35.54993
3.1235	36.65771
3.124	38.87329
3.1245	39.67896
3.125	31.11877
3.1255	26.48621
3.126	15.50903
3.1265	-3.92761
3.127	-20.94727
3.1275	-30.61523
3.128	-35.75134
3.1285	-41.79382
3.129	-34.54285
3.1295	-13.99841
3.13	-1.51062
3.1305	12.99133
3.131	23.76709
3.1315	27.6947
3.132	1.71204
3.1325	-20.74585
3.133	-34.24072
3.1335	-34.03931
3.134	-24.97559
3.1345	-13.19275
3.135	5.23682
3.1355	22.25647
3.136	31.52161
3.1365	33.23364
3.137	31.4209
3.1375	23.76709
3.138	-2.11487
3.1385	-11.88354
3.139	-7.15027
3.1395	5.0354
3.14	16.01257
3.1405	29.40674
3.141	43.80798
3.1415	65.96375
3.142	76.53809
3.1425	74.32251
3.143	71.50269
3.1435	60.22339
3.144	46.82922
3.1445	24.16992
3.145	3.32336
3.1455	-16.81824
3.146	-21.14868
3.1465	-22.86072
3.147	-20.54443
3.1475	-20.94727
3.148	-17.72461
3.1485	-32.83081
3.149	-53.17383
3.1495	-67.57507
3.15	-67.97791
3.1505	-58.91418
3.151	-49.24622
3.1515	-30.91736
3.152	-31.4209
3.1525	-32.93152
3.153	-26.58691
3.1535	-13.69629
3.154	-3.8269
3.1545	15.91187
3.155	14.80408
3.1555	9.16443
3.156	1.3092
3.1565	7.5531
3.157	5.43823
3.1575	4.33044
3.158	8.7616
3.1585	21.85364
3.159	31.21948
3.1595	48.03772
3.16	61.93542
3.1605	75.73242
3.161	75.22888
3.1615	62.64038
3.162	56.69861
3.1625	52.26746
3.163	46.82922
3.1635	31.4209
3.164	30.91736
3.1645	31.21948
3.165	39.27612
3.1655	44.41223
3.166	58.10852
3.1665	67.67578
3.167	65.3595
3.1675	46.82922
3.168	35.2478
3.1685	28.70178
3.169	16.01257
3.1695	14.19983
3.17	9.26514
3.1705	9.66797
3.171	17.52319
3.1715	17.01965
3.172	21.24939
3.1725	26.48621
3.173	25.47913
3.1735	23.96851
3.174	14.60266
3.1745	8.15735
3.175	-3.02124
3.1755	-6.64673
3.176	-23.46497
3.1765	-36.25488
3.177	-44.51294
3.1775	-43.00232
3.178	-37.16125
3.1785	-30.41382
3.179	-18.93311
3.1795	-14.50195
3.18	-10.87646
3.1805	-13.69629
3.181	-19.33594
3.1815	-35.2478
3.182	-48.33984
3.1825	-59.82056
3.183	-78.85437
3.1835	-81.7749
3.184	-86.40747
3.1845	-80.06287
3.185	-58.00781
3.1855	-58.00781
3.186	-57.60498
3.1865	-49.0448
3.187	-25.88196
3.1875	-27.6947
3.188	-35.85205
3.1885	-31.01807
3.189	-15.00549
3.1895	9.56726
3.19	35.54993
3.1905	58.71277
3.191	84.99756
3.1915	97.08252
3.192	93.15491
3.1925	85.5011
3.193	83.38623
3.1935	75.53101
3.194	68.98499
3.1945	65.56091
3.195	65.96375
3.1955	62.53967
3.196	69.89136
3.1965	57.70569
3.197	49.95117
3.1975	35.95276
3.198	13.39417
3.1985	-7.04956
3.199	-10.47363
3.1995	-15.91187
3.2	-19.33594
3.2005	-21.75293
3.201	-22.86072
3.2015	-21.14868
3.202	-16.51611
3.2025	-9.66797
3.203	-7.65381
3.2035	3.02124
3.204	7.75452
3.2045	14.30054
3.205	16.41541
3.2055	20.54443
3.206	12.08496
3.2065	9.56726
3.207	6.14319
3.2075	2.61841
3.208	1.71204
3.2085	5.23682
3.209	9.26514
3.2095	-4.02832
3.21	-50.45471
3.2105	-86.91101
3.211	-95.47119
3.2115	-85.40039
3.212	-79.15649
3.2125	-56.90002
3.213	-34.24072
3.2135	-4.02832
3.214	22.76001
3.2145	53.27454
3.215	77.04163
3.2155	86.50818
3.216	88.0188
3.2165	80.66711
3.217	68.58215
3.2175	49.14551
3.218	22.96143
3.2185	4.83398
3.219	-20.54443
3.2195	-36.05347
3.22	-32.42798
3.2205	-19.53735
3.221	-7.85522
3.2215	19.83948
3.222	35.44922
3.2225	61.53259
3.223	70.99915
3.2235	73.01331
3.224	61.12976
3.2245	38.47046
3.225	18.53027
3.2255	11.98425
3.226	10.87646
3.2265	15.60974
3.227	12.08496
3.2275	7.35168
3.228	4.43115
3.2285	-8.25806
3.229	-22.76001
3.2295	-30.31311
3.23	-60.72693
3.2305	-96.07544
3.231	-110.77881
3.2315	-119.13757
3.232	-105.74341
3.2325	-89.83154
3.233	-58.30994
3.2335	-25.07629
3.234	-1.91345
3.2345	10.87646
3.235	0.80566
3.2355	-26.3855
3.236	-56.49719
3.2365	-56.79932
3.237	-49.14551
3.2375	-40.48462
3.238	-24.87488
3.2385	1.00708
3.239	30.71594
3.2395	70.69702
3.24	89.42871
3.2405	108.46252
3.241	113.1958
3.2415	117.22412
3.242	119.33899
3.2425	110.98022
3.243	99.60022
3.2435	93.96057
3.244	76.94092
3.2445	72.30835
3.245	71.30127
3.2455	67.57507
3.246	53.97949
3.2465	45.11719
3.247	39.27612
3.2475	24.57275
3.248	18.42957
3.2485	5.74036
3.249	-29.70886
3.2495	-66.97083
3.25	-90.03296
3.2505	-81.87561
3.251	-74.42322
3.2515	-49.95117
3.252	-34.74426
3.2525	-11.48071
3.253	7.35168
3.2535	-10.87646
3.254	-35.85205
3.2545	-51.66321
3.255	-63.74817
3.2555	-65.76233
3.256	-63.94958
3.2565	-48.94409
3.257	-33.9386
3.2575	-23.06213
3.258	-12.28638
3.2585	-1.3092
3.259	10.0708
3.2595	25.88196
3.26	32.32727
3.2605	30.61523
3.261	26.88904
3.2615	35.34851
3.262	44.21082
3.2625	51.86462
3.263	55.18799
3.2635	63.64746
3.264	60.3241
3.2645	61.43188
3.265	60.52551
3.2655	53.57666
3.266	51.5625
3.2665	49.54834
3.267	61.33118
3.2675	67.17224
3.268	57.40356
3.2685	48.94409
3.269	20.04089
3.2695	-0.70496
3.27	-3.32336
3.2705	-1.2085
3.271	-0.50354
3.2715	0.60425
3.272	1.2085
3.2725	9.86938
3.273	11.78284
3.2735	22.96143
3.274	36.15417
3.2745	40.98816
3.275	37.06055
3.2755	27.79541
3.276	22.55859
3.2765	20.24231
3.277	8.25806
3.2775	5.0354
3.278	2.81982
3.2785	4.43115
3.279	4.83398
3.2795	2.11487
3.28	1.40991
3.2805	-5.43823
3.281	-3.92761
3.2815	-11.98425
3.282	-34.44214
3.2825	-61.6333
3.283	-72.30835
3.2835	-76.7395
3.284	-87.91809
3.2845	-90.5365
3.285	-80.4657
3.2855	-70.79773
3.286	-54.38232
3.2865	-29.80957
3.287	-7.04956
3.2875	18.02673
3.288	35.34851
3.2885	52.06604
3.289	63.84888
3.2895	65.56091
3.29	53.17383
3.2905	38.26904
3.291	27.39258
3.2915	23.26355
3.292	20.1416
3.2925	16.11328
3.293	14.30054
3.2935	11.68213
3.294	-0.10071
3.2945	-10.57434
3.295	-10.17151
3.2955	-10.37292
3.296	-6.54602
3.2965	6.64673
3.297	15.40833
3.2975	18.32886
3.298	23.56567
3.2985	30.91736
3.299	35.2478
3.2995	28.50037
3.3	14.60266
3.3005	13.59558
3.301	5.23682
3.3015	0.80566
3.302	1.71204
3.3025	5.33752
3.303	5.43823
3.3035	9.66797
3.304	19.63806
3.3045	20.1416
3.305	20.84656
3.3055	14.19983
3.306	13.59558
3.3065	7.75452
3.307	-5.74036
3.3075	-5.23682
3.308	-1.51062
3.3085	0.70496
3.309	-0.30212
3.3095	5.53894
3.31	-12.38708
3.3105	-31.32019
3.311	-36.15417
3.3115	-36.05347
3.312	-41.18958
3.3125	-26.68762
3.313	-21.55151
3.3135	-20.54443
3.314	-14.30054
3.3145	-5.84106
3.315	-6.44531
3.3155	-10.77576
3.316	-12.5885
3.3165	-9.56726
3.317	7.35168
3.3175	-23.36426
3.318	-61.83472
3.3185	-70.69702
3.319	-63.24463
3.3195	-44.71436
3.32	-24.87488
3.3205	-2.21558
3.321	19.94019
3.3215	42.29736
3.322	63.74817
3.3225	71.80481
3.323	81.47278
3.3235	84.2926
3.324	81.27136
3.3245	74.32251
3.325	66.56799
3.3255	61.43188
3.326	54.48303
3.3265	51.05896
3.327	47.53418
3.3275	41.29028
3.328	35.85205
3.3285	24.57275
3.329	24.77417
3.3295	15.20691
3.33	5.53894
3.3305	-2.11487
3.331	-4.43115
3.3315	0.70496
3.332	-5.43823
3.3325	0.50354
3.333	-7.65381
3.3335	-6.64673
3.334	-4.73328
3.3345	-6.44531
3.335	-18.63098
3.3355	-21.75293
3.336	-17.32178
3.3365	-18.32886
3.337	-19.53735
3.3375	-12.48779
3.338	-12.5885
3.3385	-12.48779
3.339	-12.28638
3.3395	-10.97717
3.34	-11.38
3.3405	-14.60266
3.341	-48.23914
3.3415	-63.14392
3.342	-62.9425
3.3425	-55.49011
3.343	-45.72144
3.3435	-40.68604
3.344	-32.93152
3.3445	-17.32178
3.345	-1.81274
3.3455	5.94177
3.346	12.18567
3.3465	12.89062
3.347	24.67346
3.3475	29.10461
3.348	29.30603
3.3485	30.61523
3.349	33.53577
3.3495	27.89612
3.35	31.21948
3.3505	39.07471
3.351	44.81506
3.3515	44.31152
3.352	57.00073
3.3525	52.56958
3.353	44.51294
3.3535	36.25488
3.354	22.76001
3.3545	11.98425
3.355	5.43823
3.3555	-2.41699
3.356	-15.00549
3.3565	-21.75293
3.357	-13.49487
3.3575	-20.54443
3.358	-9.46655
3.3585	-13.89771
3.359	-4.22974
3.3595	-28.39966
3.36	-67.77649
3.3605	-96.37756
3.361	-105.44128
3.3615	-94.46411
3.362	-93.25562
3.3625	-80.16357
3.363	-54.98657
3.3635	-18.8324
3.364	8.15735
3.3645	20.64514
3.365	35.65063
3.3655	57.30286
3.366	65.05737
3.3665	70.09277
3.367	74.52393
3.3675	77.04163
3.368	72.30835
3.3685	67.77649
3.369	61.83472
3.3695	51.46179
3.37	46.92993
3.3705	39.77966
3.371	31.4209
3.3715	21.55151
3.372	7.45239
3.3725	-4.73328
3.373	-0.10071
3.3735	1.3092
3.374	6.14319
3.3745	9.66797
3.375	14.09912
3.3755	20.74585
3.376	21.3501
3.3765	19.43665
3.377	19.83948
3.3775	17.82532
3.378	2.5177
3.3785	-14.80408
3.379	-19.33594
3.3795	-36.75842
3.38	-69.79065
3.3805	-89.63013
3.381	-85.5011
3.3815	-75.83313
3.382	-69.79065
3.3825	-53.97949
3.383	-40.08179
3.3835	-29.00391
3.384	-17.6239
3.3845	-13.09204
3.385	-27.09045
3.3855	-46.72852
3.386	-51.5625
3.3865	-49.14551
3.387	-31.11877
3.3875	-16.01257
3.388	-9.56726
3.3885	12.78992
3.389	22.25647
3.3895	31.92444
3.39	36.75842
3.3905	30.81665
3.391	26.48621
3.3915	16.3147
3.392	18.93311
3.3925	20.84656
3.393	30.91736
3.3935	23.8678
3.394	7.04956
3.3945	-33.83789
3.395	-48.03772
3.3955	-47.7356
3.396	-36.15417
3.3965	-13.89771
3.397	16.01257
3.3975	41.59241
3.398	73.71826
3.3985	94.46411
3.399	107.75757
3.3995	79.96216
3.4	48.33984
3.4005	21.45081
3.401	17.32178
3.4015	23.16284
3.402	30.61523
3.4025	55.18799
3.403	77.74658
3.4035	95.16907
3.404	101.21155
3.4045	102.21863
3.405	96.47827
3.4055	91.34216
3.406	77.34375
3.4065	61.12976
3.407	46.02356
3.4075	36.75842
3.408	35.44922
3.4085	39.47754
3.409	34.84497
3.4095	40.88745
3.41	27.09045
3.4105	21.45081
3.411	6.84814
3.4115	-19.73877
3.412	-52.771
3.4125	-57.00073
3.413	-54.18091
3.4135	-58.10852
3.414	-61.53259
3.4145	-98.49243
3.415	-112.28943
3.4155	-109.26819
3.416	-91.745
3.4165	-62.43896
3.417	-35.75134
3.4175	-12.99133
3.418	15.00549
3.4185	35.54993
3.419	45.3186
3.4195	48.13843
3.42	46.32568
3.4205	50.65613
3.421	43.10303
3.4215	35.65063
3.422	33.23364
3.4225	38.87329
3.423	47.43347
3.4235	59.01489
3.424	64.65454
3.4245	58.71277
3.425	50.85754
3.4255	36.4563
3.426	21.3501
3.4265	0.60425
3.427	-13.59558
3.4275	-30.91736
3.428	-42.19666
3.4285	-49.24622
3.429	-66.16516
3.4295	-85.60181
3.43	-99.19739
3.4305	-88.52234
3.431	-76.53809
3.4315	-59.31702
3.432	-50.85754
3.4325	-35.34851
3.433	-17.22107
3.4335	3.02124
3.434	15.00549
3.4345	28.39966
3.435	32.93152
3.4355	13.99841
3.436	-1.91345
3.4365	-12.68921
3.437	-27.89612
3.4375	-24.57275
3.438	-37.36267
3.4385	-39.27612
3.439	-36.85913
3.4395	-27.49329
3.44	-13.49487
3.4405	-0.70496
3.441	10.97717
3.4415	19.13452
3.442	27.19116
3.4425	29.30603
3.443	5.13611
3.4435	-31.21948
3.444	-54.48303
3.4445	-62.03613
3.445	-72.00623
3.4455	-76.23596
3.446	-75.53101
3.4465	-57.00073
3.447	-26.08337
3.4475	-6.54602
3.448	4.53186
3.4485	24.37134
3.449	53.57666
3.4495	70.49561
3.45	83.58765
3.4505	90.73792
3.451	47.93701
3.4515	-3.12195
3.452	-41.59241
3.4525	-46.62781
3.453	-32.12585
3.4535	-12.28638
3.454	19.33594
3.4545	55.59082
3.455	80.06287
3.4555	101.51367
3.456	121.65527
3.4565	125.07935
3.457	116.61987
3.4575	75.73242
3.458	47.43347
3.4585	27.49329
3.459	17.42249
3.4595	1.3092
3.46	-19.23523
3.4605	-25.37842
3.461	-19.83948
3.4615	-6.94885
3.462	-3.02124
3.4625	-0.90637
3.463	2.21558
3.4635	-0.40283
3.464	-1.10779
3.4645	4.73328
3.465	21.24939
3.4655	16.61682
3.466	20.04089
3.4665	31.82373
3.467	34.44214
3.4675	34.03931
3.468	40.88745
3.4685	38.26904
3.469	39.77966
3.4695	25.37842
3.47	24.97559
3.4705	22.25647
3.471	27.89612
3.4715	38.77258
3.472	40.08179
3.4725	48.84338
3.473	39.67896
3.4735	18.02673
3.474	-36.85913
3.4745	-58.00781
3.475	-61.43188
3.4755	-51.36108
3.476	-39.67896
3.4765	-35.04639
3.477	-32.32727
3.4775	-18.93311
3.478	-5.94177
3.4785	-4.22974
3.479	-3.32336
3.4795	-4.93469
3.48	-7.35168
3.4805	7.25098
3.481	15.50903
3.4815	19.83948
3.482	21.04797
3.4825	21.95435
3.483	17.52319
3.4835	16.71753
3.484	17.12036
3.4845	14.50195
3.485	8.56018
3.4855	12.68921
3.486	2.41699
3.4865	-15.40833
3.487	-46.62781
3.4875	-63.24463
3.488	-55.3894
3.4885	-41.69312
3.489	-60.12268
3.4895	-95.06836
3.49	-117.02271
3.4905	-150.35706
3.491	-152.97546
3.4915	-131.92749
3.492	-97.08252
3.4925	-55.08728
3.493	-21.14868
3.4935	16.61682
3.494	53.57666
3.4945	75.02747
3.495	101.9165
3.4955	117.22412
3.496	115.91492
3.4965	109.67102
3.497	104.03137
3.4975	98.19031
3.498	84.59473
3.4985	75.73242
3.499	73.71826
3.4995	70.29419
3.5	72.10693
3.5005	69.68994
3.501	68.58215
3.5015	65.96375
3.502	55.69153
3.5025	54.78516
3.503	45.62073
3.5035	48.64197
3.504	43.10303
3.5045	45.62073
3.505	33.03223
3.5055	13.69629
3.506	-1.61133
3.5065	-12.08496
3.507	-17.52319
3.5075	-22.76001
3.508	-18.12744
3.5085	-19.94019
3.509	-8.8623
3.5095	-5.94177
3.51	-19.63806
3.5105	-21.04797
3.511	-18.02673
3.5115	-15.20691
3.512	-13.19275
3.5125	-4.73328
3.513	-3.32336
3.5135	-10.97717
3.514	-0.60425
3.5145	-4.33044
3.515	-2.11487
3.5155	3.12195
3.516	13.29346
3.5165	3.8269
3.517	3.22266
3.5175	-17.72461
3.518	-37.66479
3.5185	-49.64905
3.519	-54.28162
3.5195	-54.88586
3.52	-49.54834
3.5205	-41.69312
3.521	-30.01099
3.5215	-7.85522
3.522	9.46655
3.5225	28.50037
3.523	39.37683
3.5235	54.28162
3.524	54.68445
3.5245	38.16833
3.525	17.42249
3.5255	4.63257
3.526	4.02832
3.5265	9.76868
3.527	22.35718
3.5275	31.72302
3.528	45.11719
3.5285	53.97949
3.529	54.78516
3.5295	42.7002
3.53	28.9032
3.5305	19.13452
3.531	7.95593
3.5315	12.38708
3.532	12.5885
3.5325	16.51611
3.533	12.28638
3.5335	10.67505
3.534	18.12744
3.5345	24.97559
3.535	33.73718
3.5355	37.16125
3.536	36.05347
3.5365	34.34143
3.537	24.06921
3.5375	18.8324
3.538	19.43665
3.5385	18.93311
3.539	19.13452
3.5395	14.40125
3.54	14.40125
3.5405	14.80408
3.541	-8.35876
3.5415	-36.05347
3.542	-52.06604
3.5425	-70.89844
3.543	-100.40588
3.5435	-111.8866
3.544	-118.73474
3.5445	-99.80164
3.545	-102.11792
3.5455	-108.76465
3.546	-120.64819
3.5465	-140.78979
3.547	-131.52466
3.5475	-106.34766
3.548	-98.19031
3.5485	-79.05579
3.549	-56.19507
3.5495	-31.92444
3.55	-19.43665
3.5505	-3.22266
3.551	20.94727
3.5515	49.0448
3.552	70.69702
3.5525	98.39172
3.553	120.84961
3.5535	129.20837
3.554	130.41687
3.5545	124.57581
3.555	114.90784
3.5555	107.45544
3.556	95.26978
3.5565	93.55774
3.557	97.88818
3.5575	105.54199
3.558	105.23987
3.5585	88.62305
3.559	75.4303
3.5595	67.07153
3.56	70.69702
3.5605	69.08569
3.561	62.9425
3.5615	52.8717
3.562	46.62781
3.5625	30.51453
3.563	20.84656
3.5635	13.49487
3.564	11.98425
3.5645	10.37292
3.565	2.41699
3.5655	-0.40283
3.566	-2.71912
3.5665	-2.21558
3.567	-4.73328
3.5675	-20.1416
3.568	-34.44214
3.5685	-40.98816
3.569	-42.7002
3.5695	-57.8064
3.57	-55.18799
3.5705	-60.12268
3.571	-51.05896
3.5715	-60.72693
3.572	-85.90393
3.5725	-90.33508
3.573	-74.92676
3.5735	-54.38232
3.574	-42.8009
3.5745	-14.19983
3.575	7.85522
3.5755	23.16284
3.576	40.1825
3.5765	39.47754
3.577	17.72461
3.5775	1.00708
3.578	-16.3147
3.5785	-18.42957
3.579	-13.19275
3.5795	1.00708
3.58	12.99133
3.5805	16.01257
3.581	28.9032
3.5815	28.80249
3.582	28.9032
3.5825	35.34851
3.583	42.29736
3.5835	50.85754
3.584	43.40515
3.5845	22.76001
3.585	16.11328
3.5855	13.19275
3.586	4.83398
3.5865	-23.16284
3.587	-90.83862
3.5875	-166.77246
3.588	-216.92505
3.5885	-239.08081
3.589	-217.02576
3.5895	-181.57654
3.59	-158.21228
3.5905	-139.78271
3.591	-99.19739
3.5915	-54.28162
3.592	-24.77417
3.5925	1.00708
3.593	34.54285
3.5935	62.03613
3.594	90.03296
3.5945	106.14624
3.595	116.51917
3.5955	117.52625
3.596	106.54907
3.5965	91.14075
3.597	69.28711
3.5975	44.0094
3.598	15.91187
3.5985	14.09912
3.599	16.41541
3.5995	23.16284
3.6	33.53577
3.6005	40.68604
3.601	50.05188
3.6015	72.30835
3.602	101.41296
3.6025	126.28784
3.603	128.40271
3.6035	122.96448
3.604	105.03845
3.6045	93.65845
3.605	81.37207
3.6055	77.54517
3.606	67.57507
3.6065	63.84888
3.607	57.30286
3.6075	44.11011
3.608	37.66479
3.6085	34.74426
3.609	51.46179
3.6095	57.40356
3.61	65.3595
3.6105	61.6333
3.611	52.16675
3.6115	40.08179
3.612	34.74426
3.6125	21.55151
3.613	27.49329
3.6135	31.21948
3.614	11.78284
3.6145	4.73328
3.615	4.83398
3.6155	1.61133
3.616	-3.7262
3.6165	6.64673
3.617	2.31628
3.6175	-0.50354
3.618	-7.75452
3.6185	-4.33044
3.619	-8.35876
3.6195	-6.54602
3.62	-7.75452
3.6205	-6.64673
3.621	-24.16992
3.6215	-23.16284
3.622	-31.01807
3.6225	-29.20532
3.623	-31.21948
3.6235	-44.51294
3.624	-65.86304
3.6245	-79.96216
3.625	-88.22021
3.6255	-133.13599
3.626	-196.38062
3.6265	-234.75037
3.627	-243.31055
3.6275	-215.31372
3.628	-170.19653
3.6285	-117.22412
3.629	-55.99365
3.6295	-9.86938
3.63	45.01648
3.6305	82.9834
3.631	103.52783
3.6315	124.97864
3.632	122.15881
3.6325	104.73633
3.633	94.3634
3.6335	92.95349
3.634	82.17773
3.6345	75.83313
3.635	76.03455
3.6355	73.71826
3.636	72.81189
3.6365	65.96375
3.637	62.74109
3.6375	72.9126
3.638	76.13525
3.6385	73.01331
3.639	61.93542
3.6395	71.90552
3.64	67.27295
3.6405	51.15967
3.641	40.38391
3.6415	39.57825
3.642	35.44922
3.6425	28.70178
3.643	25.07629
3.6435	12.48779
3.644	15.60974
3.6445	2.31628
3.645	-65.46021
3.6455	-147.23511
3.646	-212.39319
3.6465	-234.85107
3.647	-221.96045
3.6475	-188.52539
3.648	-147.83936
3.6485	-94.86694
3.649	-52.36816
3.6495	-27.29187
3.65	-13.29346
3.6505	2.71912
3.651	18.12744
3.6515	41.29028
3.652	48.84338
3.6525	59.92126
3.653	68.78357
3.6535	75.22888
3.654	85.80322
3.6545	87.31384
3.655	83.38623
3.6555	69.79065
3.656	51.36108
3.6565	34.03931
3.657	15.81116
3.6575	0.30212
3.658	-2.92053
3.6585	1.40991
3.659	-2.41699
3.6595	-18.8324
3.66	-59.61914
3.6605	-80.76782
3.661	-100.10376
3.6615	-90.33508
3.662	-59.1156
3.6625	-20.24231
3.663	11.68213
3.6635	29.60815
3.664	43.00232
3.6645	71.90552
3.665	90.33508
3.6655	91.94641
3.666	84.69543
3.6665	67.17224
3.667	46.32568
3.6675	24.16992
3.668	7.15027
3.6685	4.83398
3.669	2.41699
3.6695	7.25098
3.67	3.7262
3.6705	-26.08337
3.671	-67.77649
3.6715	-96.8811
3.672	-119.64111
3.6725	-127.29492
3.673	-93.35632
3.6735	-58.61206
3.674	-32.32727
3.6745	0.60425
3.675	31.01807
3.6755	48.33984
3.676	64.55383
3.6765	79.35791
3.677	83.58765
3.6775	83.58765
3.678	79.76074
3.6785	84.39331
3.679	81.47278
3.6795	86.40747
3.68	88.92517
3.6805	98.89526
3.681	104.53491
3.6815	89.63013
3.682	42.59949
3.6825	10.77576
3.683	-5.74036
3.6835	-26.78833
3.684	-56.69861
3.6845	-70.19348
3.685	-87.11243
3.6855	-94.76624
3.686	-89.73083
3.6865	-75.4303
3.687	-40.38391
3.6875	-20.44373
3.688	-4.63257
3.6885	25.68054
3.689	50.05188
3.6895	72.61047
3.69	83.99048
3.6905	84.69543
3.691	82.37915
3.6915	78.55225
3.692	78.14941
3.6925	73.01331
3.693	70.49561
3.6935	68.78357
3.694	61.23047
3.6945	25.177
3.695	-53.97949
3.6955	-106.34766
3.696	-111.58447
3.6965	-103.72925
3.697	-83.68835
3.6975	-64.55383
3.698	-38.06763
3.6985	-7.15027
3.699	10.0708
3.6995	26.88904
3.7	36.85913
3.7005	43.90869
3.701	40.2832
3.7015	41.69312
3.702	36.15417
3.7025	30.51453
3.703	28.80249
3.7035	38.36975
3.704	44.71436
3.7045	51.96533
3.705	53.57666
3.7055	46.92993
3.706	36.25488
3.7065	33.23364
3.707	31.92444
3.7075	27.09045
3.708	28.70178
3.7085	36.35559
3.709	41.79382
3.7095	40.88745
3.71	38.67188
3.7105	34.74426
3.711	28.29895
3.7115	21.75293
3.712	9.97009
3.7125	10.17151
3.713	22.96143
3.7135	19.23523
3.714	25.27771
3.7145	23.76709
3.715	22.15576
3.7155	16.51611
3.716	13.19275
3.7165	9.76868
3.717	7.45239
3.7175	6.54602
3.718	8.25806
3.7185	6.3446
3.719	3.42407
3.7195	-8.66089
3.72	-17.01965
3.7205	-32.93152
3.721	-50.2533
3.7215	-78.75366
3.722	-122.56165
3.7225	-174.92981
3.723	-218.23425
3.7235	-264.0564
3.724	-274.53003
3.7245	-240.79285
3.725	-184.19495
3.7255	-119.4397
3.726	-55.3894
3.7265	-14.70337
3.727	0.60425
3.7275	13.69629
3.728	8.96301
3.7285	8.05664
3.729	18.02673
3.7295	25.27771
3.73	41.99524
3.7305	51.5625
3.731	74.32251
3.7315	97.68677
3.732	100.70801
3.7325	103.62854
3.733	98.89526
3.7335	94.46411
3.734	105.23987
3.7345	112.59155
3.735	117.12341
3.7355	109.87244
3.736	99.60022
3.7365	86.50818
3.737	77.14233
3.7375	79.2572
3.738	62.74109
3.7385	40.68604
3.739	24.27063
3.7395	6.44531
3.74	-31.62231
3.7405	-58.91418
3.741	-55.3894
3.7415	-38.36975
3.742	-11.98425
3.7425	25.57983
3.743	60.82764
3.7435	74.12109
3.744	79.45862
3.7445	72.30835
3.745	63.04321
3.7455	50.65613
3.746	50.95825
3.7465	41.39099
3.747	29.91028
3.7475	3.92761
3.748	-6.04248
3.7485	-18.22815
3.749	-19.43665
3.7495	-20.44373
3.75	-18.32886
3.7505	-17.52319
3.751	-16.21399
3.7515	-21.75293
3.752	-17.72461
3.7525	-10.47363
3.753	-4.33044
3.7535	4.53186
3.754	5.23682
3.7545	8.56018
3.755	2.01416
3.7555	-3.22266
3.756	-9.06372
3.7565	-6.54602
3.757	-5.23682
3.7575	-3.62549
3.758	-15.60974
3.7585	-21.75293
3.759	-34.03931
3.7595	-40.98816
3.76	-50.85754
3.7605	-58.00781
3.761	-66.36658
3.7615	-71.30127
3.762	-70.49561
3.7625	-64.85596
3.763	-49.64905
3.7635	-54.88586
3.764	-99.90234
3.7645	-130.31616
3.765	-131.32324
3.7655	-131.02112
3.766	-120.84961
3.7665	-136.35864
3.767	-140.8905
3.7675	-122.05811
3.768	-77.24304
3.7685	-32.32727
3.769	11.48071
3.7695	46.5271
3.77	83.18481
3.7705	120.34607
3.771	149.45068
3.7715	159.82361
3.772	163.65051
3.7725	140.58838
3.773	120.84961
3.7735	80.4657
3.774	54.28162
3.7745	24.37134
3.775	1.10779
3.7755	-11.07788
3.776	-6.04248
3.7765	21.24939
3.777	49.85046
3.7775	71.30127
3.778	77.54517
3.7785	52.06604
3.779	-3.62549
3.7795	-64.151
3.78	-109.97314
3.7805	-126.08643
3.781	-137.56714
3.7815	-146.32874
3.782	-134.64661
3.7825	-90.43579
3.783	-47.8363
3.7835	-9.97009
3.784	39.98108
3.7845	81.47278
3.785	114.4043
3.7855	139.17847
3.786	167.47742
3.7865	173.21777
3.787	165.06042
3.7875	132.53174
3.788	107.65686
3.7885	91.34216
3.789	71.90552
3.7895	58.00781
3.79	54.58374
3.7905	51.36108
3.791	14.40125
3.7915	-31.92444
3.792	-44.21082
3.7925	-42.09595
3.793	-47.23206
3.7935	-39.57825
3.794	-20.1416
3.7945	0.20142
3.795	14.40125
3.7955	35.95276
3.796	58.20923
3.7965	63.04321
3.797	72.50977
3.7975	69.99207
3.798	64.151
3.7985	61.53259
3.799	48.54126
3.7995	22.45789
3.8	-1.51062
3.8005	-17.12036
3.801	-35.44922
3.8015	-43.50586
3.802	-24.57275
3.8025	-8.45947
3.803	-4.73328
3.8035	3.92761
3.804	-1.51062
3.8045	-10.17151
3.805	-25.57983
3.8055	-35.65063
3.806	-38.67188
3.8065	-85.09827
3.807	-124.07227
3.8075	-161.23352
3.808	-214.70947
3.8085	-262.04224
3.809	-264.96277
3.8095	-250.05798
3.81	-214.00452
3.8105	-155.29175
3.811	-76.84021
3.8115	-11.38
3.812	47.03064
3.8125	86.00464
3.813	118.93616
3.8135	149.85352
3.814	165.86609
3.8145	174.22485
3.815	188.72681
3.8155	200.71106
3.816	210.68115
3.8165	208.26416
3.817	178.05176
3.8175	133.13599
3.818	66.26587
3.8185	10.57434
3.819	-17.72461
3.8195	-25.88196
3.82	-13.09204
3.8205	23.8678
3.821	52.36816
3.8215	62.9425
3.822	53.77808
3.8225	45.82214
3.823	31.11877
3.8235	32.12585
3.824	9.66797
3.8245	-8.56018
3.825	-18.32886
3.8255	-27.6947
3.826	-57.00073
3.8265	-91.04004
3.827	-106.75049
3.8275	-96.98181
3.828	-80.96924
3.8285	-54.48303
3.829	-31.92444
3.8295	-1.00708
3.83	40.2832
3.8305	68.17932
3.831	89.83154
3.8315	101.51367
3.832	99.49951
3.8325	97.98889
3.833	96.17615
3.8335	82.78198
3.834	81.47278
3.8345	85.90393
3.835	80.16357
3.8355	95.77332
3.836	105.74341
3.8365	104.3335
3.837	94.96765
3.8375	87.81738
3.838	73.81897
3.8385	59.51843
3.839	41.69312
3.8395	26.3855
3.84	11.88354
3.8405	-6.14319
3.841	-25.27771
3.8415	-35.85205
3.842	-37.06055
3.8425	-51.5625
3.843	-72.20764
3.8435	-87.41455
3.844	-107.75757
3.8445	-118.83545
3.845	-151.26343
3.8455	-176.84326
3.846	-198.99902
3.8465	-269.79675
3.847	-302.72827
3.8475	-279.96826
3.848	-226.59302
3.8485	-175.43335
3.849	-123.06519
3.8495	-59.31702
3.85	22.05505
3.8505	79.15649
3.851	120.7489
3.8515	151.56555
3.852	179.36096
3.8525	169.18945
3.853	151.56555
3.8535	137.36572
3.854	134.04236
3.8545	137.36572
3.855	129.5105
3.8555	93.65845
3.856	47.53418
3.8565	0.60425
3.857	-24.97559
3.8575	-33.83789
3.858	-48.64197
3.8585	-66.6687
3.859	-90.43579
3.8595	-81.47278
3.86	-65.46021
3.8605	-32.22656
3.861	-12.18567
3.8615	-6.14319
3.862	14.19983
3.8625	19.33594
3.863	-34.34143
3.8635	-98.49243
3.864	-151.46484
3.8645	-183.18787
3.865	-173.62061
3.8655	-140.38696
3.866	-81.37207
3.8665	-36.75842
3.867	30.31311
3.8675	72.9126
3.868	101.8158
3.8685	123.46802
3.869	160.62927
3.8695	190.13672
3.87	191.34521
3.8705	189.23035
3.871	178.85742
3.8715	161.53564
3.872	127.69775
3.8725	104.53491
3.873	93.85986
3.8735	88.72375
3.874	89.02588
3.8745	81.7749
3.875	75.53101
3.8755	72.40906
3.876	70.29419
3.8765	63.44604
3.877	46.32568
3.8775	-14.60266
3.878	-46.22498
3.8785	-59.01489
3.879	-51.05896
3.8795	-27.6947
3.88	-3.8269
3.8805	29.20532
3.881	61.02905
3.8815	87.11243
3.882	110.27527
3.8825	131.82678
3.883	138.17139
3.8835	138.77563
3.884	130.01404
3.8845	107.55615
3.885	97.38464
3.8855	87.41455
3.886	82.88269
3.8865	72.00623
3.887	59.82056
3.8875	33.43506
3.888	-38.974
3.8885	-110.27527
3.889	-154.58679
3.8895	-167.77954
3.89	-167.67883
3.8905	-141.89758
3.891	-109.4696
3.8915	-82.78198
3.892	-53.87878
3.8925	-32.52869
3.893	-24.97559
3.8935	-29.40674
3.894	-37.7655
3.8945	-39.37683
3.895	-27.09045
3.8955	-26.48621
3.896	-16.21399
3.8965	-10.27222
3.897	-44.31152
3.8975	-97.68677
3.898	-126.79138
3.8985	-135.8551
3.899	-116.01562
3.8995	-94.86694
3.9	-98.59314
3.9005	-130.21545
3.901	-206.75354
3.9015	-278.65906
3.902	-345.02563
3.9025	-399.50867
3.903	-445.83435
3.9035	-405.34973
3.904	-313.30261
3.9045	-190.13672
3.905	-51.66321
3.9055	73.21472
3.906	173.01636
3.9065	257.71179
3.907	330.62439
3.9075	363.25378
3.908	387.42371
3.9085	396.48743
3.909	383.89893
3.9095	360.9375
3.91	321.86279
3.9105	265.3656
3.911	211.68823
3.9115	174.52698
3.912	164.65759
3.9125	166.36963
3.913	169.7937
3.9135	155.69458
3.914	109.97314
3.9145	57.70569
3.915	10.87646
